Reading 691200 characters... all characters read successfully.-1.17363e-09
-1.17354e+06
-1.85059e+06
-3.03691e+06
-4.28832e+06
-3.79256e+06
-2.90849e+06
-1.91732e+06
115591
1.12836e+06
615832
-91594.2
-2.12518e+06
-4.79418e+06
-5.743e+06
-5.661e+06
-4.2526e+06
-410286
3.35843e+06
5.45529e+06
5.64827e+06
1.08068e+06
-8.92097e+06
-2.25231e+07
-3.98564e+07
-5.88766e+07
-7.57687e+07
-8.9916e+07
-9.99711e+07
-1.04085e+08
-1.04342e+08
-1.02128e+08
-9.76647e+07
-9.40015e+07
-9.22425e+07
-9.12786e+07
-9.23257e+07
-9.46786e+07
-9.59631e+07
-9.69823e+07
-9.74242e+07
-9.58781e+07
-9.42951e+07
-9.3262e+07
-9.1736e+07
-9.1466e+07
-9.2382e+07
-9.26118e+07
-9.32544e+07
-9.39322e+07
-9.29265e+07
-9.29494e+07
-9.26083e+07
-9.18086e+07
-9.20145e+07
-9.17763e+07
-9.09758e+07
-9.10727e+07
-9.06382e+07
-8.96125e+07
-8.95269e+07
-8.89891e+07
-8.79499e+07
-8.79246e+07
-8.74814e+07
-8.65271e+07
-8.65326e+07
-8.60359e+07
-8.49356e+07
-8.47402e+07
-8.40037e+07
-8.26814e+07
-8.23245e+07
-8.14889e+07
-8.01205e+07
-7.97449e+07
-7.88991e+07
-7.74872e+07
-7.69947e+07
-7.59655e+07
-7.43508e+07
-7.36809e+07
-7.25342e+07
-7.09009e+07
-7.03083e+07
-6.92934e+07
-6.78471e+07
-6.74398e+07
-6.65682e+07
-6.52206e+07
-6.48394e+07
-6.39315e+07
-6.25291e+07
-6.2105e+07
-6.11948e+07
-5.98566e+07
-5.9571e+07
-5.88531e+07
-5.77684e+07
-5.77375e+07
-5.72433e+07
-5.63273e+07
-5.63737e+07
-5.5865e+07
-5.4875e+07
-5.48084e+07
-5.41854e+07
-5.31518e+07
-5.31392e+07
-5.27151e+07
-5.2046e+07
-5.25142e+07
-5.2633e+07
-5.2536e+07
-5.35322e+07
-5.41059e+07
-5.44013e+07
-5.57316e+07
-5.66132e+07
-5.72285e+07
-5.88988e+07
-6.01477e+07
-6.11612e+07
-6.32133e+07
-6.47797e+07
-6.60138e+07
-6.81431e+07
-6.9642e+07
-7.06802e+07
-7.25303e+07
-7.3745e+07
-7.45333e+07
-7.62039e+07
-7.73198e+07
-7.80665e+07
-7.97218e+07
-8.08277e+07
-8.15218e+07
-8.30592e+07
-8.39813e+07
-8.44413e+07
-8.57234e+07
-8.64245e+07
-8.67043e+07
-8.78689e+07
-8.84876e+07
-8.87239e+07
-8.98499e+07
-9.04272e+07
-9.05778e+07
-9.15671e+07
-9.19583e+07
-9.18697e+07
-9.26016e+07
-9.27727e+07
-9.25102e+07
-9.31333e+07
-9.32718e+07
-9.3038e+07
-9.37341e+07
-9.39656e+07
-9.3785e+07
-9.44654e+07
-9.46217e+07
-9.42946e+07
-9.47889e+07
-9.47711e+07
-9.43114e+07
-9.475e+07
-9.47643e+07
-9.4411e+07
-9.50069e+07
-9.51898e+07
-9.49678e+07
-9.5608e+07
-9.57415e+07
-9.53656e+07
-9.57925e+07
-9.57104e+07
-9.51656e+07
-9.55225e+07
-9.54697e+07
-9.50571e+07
-9.56221e+07
-9.58104e+07
-9.56027e+07
-9.62826e+07
-9.64596e+07
-9.61072e+07
-9.65405e+07
-9.64387e+07
-9.58372e+07
-9.61393e+07
-9.60592e+07
-9.56155e+07
-9.61602e+07
-9.63305e+07
-9.60623e+07
-9.66418e+07
-9.66907e+07
-9.61614e+07
-9.64174e+07
-9.61593e+07
-9.54214e+07
-9.5637e+07
-9.55161e+07
-9.50587e+07
-9.56242e+07
-9.58569e+07
-9.56592e+07
-9.63553e+07
-9.65646e+07
-9.62125e+07
-9.66859e+07
-9.6682e+07
-9.61829e+07
-9.66171e+07
-9.66786e+07
-9.6318e+07
-9.69081e+07
-9.70892e+07
-9.67757e+07
-9.73035e+07
-9.73361e+07
-9.68167e+07
-9.71411e+07
-9.70257e+07
-9.64614e+07
-9.68639e+07
-9.69332e+07
-9.66215e+07
-9.72764e+07
-9.75448e+07
-9.73527e+07
-9.80251e+07
-9.82034e+07
-9.78315e+07
-9.82715e+07
-9.82123e+07
-9.76399e+07
-9.79612e+07
-9.78791e+07
-9.73722e+07
-9.78284e+07
-9.78996e+07
-9.75438e+07
-9.80845e+07
-9.81626e+07
-9.77408e+07
-9.81877e+07
-9.8175e+07
-9.76905e+07
-9.81189e+07
-9.81386e+07
-9.77382e+07
-9.82797e+07
-9.84157e+07
-9.81297e+07
-9.8768e+07
-9.8962e+07
-9.86989e+07
-9.93117e+07
-9.94422e+07
-9.90939e+07
-9.96251e+07
-9.96895e+07
-9.9311e+07
-9.98482e+07
-9.99525e+07
-9.96367e+07
-1.00241e+08
-1.00398e+08
-1.00087e+08
-1.00635e+08
-1.00677e+08
-1.0022e+08
-1.00623e+08
-1.00561e+08
-1.0006e+08
-1.00484e+08
-1.00499e+08
-1.00106e+08
-1.00626e+08
-1.00708e+08
-1.00322e+08
-1.00798e+08
-1.00793e+08
-1.00313e+08
-1.00727e+08
-1.00719e+08
-1.00318e+08
-1.00881e+08
-1.01043e+08
-1.00782e+08
-1.01407e+08
-1.01538e+08
-1.01155e+08
-1.01603e+08
-1.01558e+08
-1.01046e+08
-1.0145e+08
-1.01444e+08
-1.0105e+08
-1.01618e+08
-1.01781e+08
-1.01522e+08
-1.02137e+08
-1.02254e+08
-1.01867e+08
-1.02314e+08
-1.02262e+08
-1.01721e+08
-1.02064e+08
-1.0198e+08
-1.01491e+08
-1.0196e+08
-1.02055e+08
-1.01757e+08
-1.02373e+08
-1.02538e+08
-1.02209e+08
-1.02696e+08
-1.02654e+08
-1.02078e+08
-1.02332e+08
-1.02131e+08
-1.01511e+08
-1.01841e+08
-1.01814e+08
-1.01415e+08
-1.01966e+08
-1.02098e+08
-1.01771e+08
-1.02296e+08
-1.02329e+08
-1.01853e+08
-1.0223e+08
-1.02144e+08
-1.01614e+08
-1.02007e+08
-1.02004e+08
-1.01593e+08
-1.02098e+08
-1.0217e+08
-1.01771e+08
-1.02231e+08
-1.02224e+08
-1.0174e+08
-1.02142e+08
-1.02111e+08
-1.01642e+08
-1.02086e+08
-1.02115e+08
-1.0172e+08
-1.02231e+08
-1.02327e+08
-1.01964e+08
-1.02476e+08
-1.02543e+08
-1.02143e+08
-1.02606e+08
-1.02599e+08
-1.02128e+08
-1.02534e+08
-1.02505e+08
-1.02045e+08
-1.02476e+08
-1.02471e+08
-1.02e+08
-1.02372e+08
-1.02259e+08
-1.01673e+08
-1.01951e+08
-1.01802e+08
-1.01275e+08
-1.01695e+08
-1.01742e+08
-1.01416e+08
-1.01975e+08
-1.02043e+08
-1.01582e+08
-1.01867e+08
-1.01587e+08
-1.00802e+08
-1.00891e+08
-1.00583e+08
-9.99673e+07
-1.00332e+08
-1.00319e+08
-9.99345e+07
-1.00341e+08
-1.00125e+08
-9.92994e+07
-9.91025e+07
-9.82504e+07
-9.69138e+07
-9.6467e+07
-9.56747e+07
-9.4702e+07
-9.48475e+07
-9.4753e+07
-9.44293e+07
-9.50341e+07
-9.51215e+07
-9.46651e+07
-9.49019e+07
-9.44673e+07
-9.34048e+07
-9.30915e+07
-9.22361e+07
-9.08891e+07
-9.04492e+07
-8.96197e+07
-8.84258e+07
-8.82479e+07
-8.77895e+07
-8.70395e+07
-8.73732e+07
-8.74735e+07
-8.72786e+07
-8.81176e+07
-8.86255e+07
-8.8684e+07
-8.95991e+07
-9.00447e+07
-8.994e+07
-9.06562e+07
-9.09663e+07
-9.08295e+07
-9.16338e+07
-9.21188e+07
-9.21773e+07
-9.31245e+07
-9.36422e+07
-9.36048e+07
-9.4328e+07
-9.45522e+07
-9.42114e+07
-9.46922e+07
-9.48315e+07
-9.45498e+07
-9.52334e+07
-9.56838e+07
-9.57531e+07
-9.67686e+07
-9.74848e+07
-9.77398e+07
-9.88395e+07
-9.95604e+07
-9.97782e+07
-1.00839e+08
-1.01532e+08
-1.01711e+08
-1.02698e+08
-1.03261e+08
-1.03279e+08
-1.04126e+08
-1.0456e+08
-1.04426e+08
-1.05166e+08
-1.05475e+08
-1.05173e+08
-1.05694e+08
-1.05732e+08
-1.05043e+08
-1.05304e+08
-1.05216e+08
-1.04347e+08
-1.04653e+08
-1.04653e+08
-1.03479e+08
-1.03463e+08
-1.03165e+08
-1.01518e+08
-1.01605e+08
-1.02026e+08
-1.01318e+08
-1.02751e+08
-1.04516e+08
-1.05234e+08
-1.07036e+08
-1.07879e+08
-1.07429e+08
-1.06753e+08
-1.04277e+08
-1.01305e+08
-9.7992e+07
-9.30385e+07
-8.80159e+07
-8.23974e+07
-7.43722e+07
-6.46319e+07
-5.27742e+07
-3.71803e+07
-1.90488e+07
499685
2.15324e+07
4.18281e+07
5.89428e+07
7.26769e+07
8.15312e+07
8.39706e+07
8.13916e+07
7.42363e+07
6.23442e+07
4.82645e+07
3.30708e+07
1.65408e+07
933610
-1.33496e+07
-2.72242e+07
-3.9033e+07
-4.88368e+07
-5.79222e+07
-6.48045e+07
-6.99213e+07
-7.47559e+07
-7.78049e+07
-7.99396e+07
-8.25733e+07
-8.3809e+07
-8.47919e+07
-8.67274e+07
-8.72038e+07
-8.77626e+07
-8.93943e+07
-8.92894e+07
-8.93783e+07
-9.06512e+07
-9.08055e+07
-9.10313e+07
-9.23732e+07
-9.34614e+07
-9.40655e+07
-9.52578e+07
-9.676e+07
-9.70404e+07
-9.74613e+07
-9.83387e+07
-9.80492e+07
-9.81624e+07
-9.87157e+07
-9.84225e+07
-9.87137e+07
-9.92602e+07
-9.89975e+07
-9.93714e+07
-9.96891e+07
-9.92617e+07
-9.95213e+07
-9.95607e+07
-9.8965e+07
-9.91916e+07
-9.91369e+07
-9.8577e+07
-9.89208e+07
-9.89402e+07
-9.84684e+07
-9.88697e+07
-9.88571e+07
-9.82939e+07
-9.85655e+07
-9.83952e+07
-9.77135e+07
-9.79444e+07
-9.78028e+07
-9.72375e+07
-9.76478e+07
-9.77011e+07
-9.73113e+07
-9.78342e+07
-9.79006e+07
-9.74254e+07
-9.7781e+07
-9.76271e+07
-9.69307e+07
-9.71216e+07
-9.68882e+07
-9.62071e+07
-9.64898e+07
-9.63754e+07
-9.58021e+07
-9.61344e+07
-9.59879e+07
-9.52983e+07
-9.54706e+07
-9.51513e+07
-9.43075e+07
-9.43922e+07
-9.4074e+07
-9.33136e+07
-9.35435e+07
-9.33736e+07
-9.2715e+07
-9.29648e+07
-9.27413e+07
-9.19679e+07
-9.20912e+07
-9.17473e+07
-9.08912e+07
-9.09983e+07
-9.06891e+07
-8.98984e+07
-9.00729e+07
-8.98258e+07
-8.90572e+07
-8.92123e+07
-8.88976e+07
-8.80134e+07
-8.80414e+07
-8.76111e+07
-8.66351e+07
-8.66265e+07
-8.62055e+07
-8.5275e+07
-8.53236e+07
-8.49382e+07
-8.39809e+07
-8.39296e+07
-8.33719e+07
-8.21915e+07
-8.19126e+07
-8.1154e+07
-7.98354e+07
-7.95114e+07
-7.87823e+07
-7.75552e+07
-7.73357e+07
-7.66771e+07
-7.54497e+07
-7.51432e+07
-7.43081e+07
-7.28486e+07
-7.22952e+07
-7.12647e+07
-6.97179e+07
-6.91969e+07
-6.82821e+07
-6.69111e+07
-6.65531e+07
-6.57359e+07
-6.43703e+07
-6.39133e+07
-6.29145e+07
-6.13358e+07
-6.0696e+07
-5.95939e+07
-5.80469e+07
-5.75666e+07
-5.67347e+07
-5.55367e+07
-5.54121e+07
-5.48739e+07
-5.38906e+07
-5.38707e+07
-5.33382e+07
-5.2296e+07
-5.21707e+07
-5.15277e+07
-5.04359e+07
-5.03518e+07
-4.98583e+07
-4.90488e+07
-4.9338e+07
-4.92673e+07
-4.89102e+07
-4.96128e+07
-4.98886e+07
-4.98207e+07
-5.0755e+07
-5.12451e+07
-5.14222e+07
-5.26513e+07
-5.3504e+07
-5.4127e+07
-5.5835e+07
-5.7164e+07
-5.82187e+07
-6.02644e+07
-6.18126e+07
-6.29669e+07
-6.49907e+07
-6.64282e+07
-6.74161e+07
-6.92731e+07
-7.05706e+07
-7.14663e+07
-7.32553e+07
-7.45013e+07
-7.53326e+07
-7.70188e+07
-7.8111e+07
-7.87364e+07
-8.01879e+07
-8.10451e+07
-8.14571e+07
-8.27402e+07
-8.34833e+07
-8.38321e+07
-8.507e+07
-8.577e+07
-8.6047e+07
-8.715e+07
-8.76569e+07
-8.76749e+07
-8.84874e+07
-8.86913e+07
-8.84097e+07
-8.89631e+07
-8.89839e+07
-8.86234e+07
-8.92056e+07
-8.93703e+07
-8.91938e+07
-8.99413e+07
-9.01958e+07
-8.99692e+07
-9.05373e+07
-9.05326e+07
-9.00253e+07
-9.03678e+07
-9.02489e+07
-8.97516e+07
-9.02117e+07
-9.02774e+07
-8.99552e+07
-9.05231e+07
-9.06012e+07
-9.01806e+07
-9.05769e+07
-9.0479e+07
-8.99384e+07
-9.03351e+07
-9.03753e+07
-9.00877e+07
-9.0781e+07
-9.10913e+07
-9.09668e+07
-9.16685e+07
-9.18306e+07
-9.14352e+07
-9.18084e+07
-9.16754e+07
-9.11003e+07
-9.14573e+07
-9.14638e+07
-9.11375e+07
-9.17836e+07
-9.20527e+07
-9.18781e+07
-9.25442e+07
-9.27159e+07
-9.23549e+07
-9.28062e+07
-9.27948e+07
-9.23072e+07
-9.27074e+07
-9.27001e+07
-9.22478e+07
-9.26818e+07
-9.27019e+07
-9.22483e+07
-9.2667e+07
-9.26453e+07
-9.21381e+07
-9.25e+07
-9.24403e+07
-9.19176e+07
-9.2303e+07
-9.23082e+07
-9.18963e+07
-9.24165e+07
-9.25618e+07
-9.22573e+07
-9.28221e+07
-9.29461e+07
-9.25657e+07
-9.30331e+07
-9.30594e+07
-9.26024e+07
-9.30538e+07
-9.31301e+07
-9.27907e+07
-9.33965e+07
-9.36282e+07
-9.34037e+07
-9.40412e+07
-9.42052e+07
-9.38269e+07
-9.42583e+07
-9.42195e+07
-9.36806e+07
-9.40315e+07
-9.40066e+07
-9.35766e+07
-9.4086e+07
-9.42234e+07
-9.39349e+07
-9.45245e+07
-9.4662e+07
-9.42946e+07
-9.4753e+07
-9.47455e+07
-9.42329e+07
-9.45952e+07
-9.45396e+07
-9.40815e+07
-9.45792e+07
-9.47233e+07
-9.44944e+07
-9.51956e+07
-9.54609e+07
-9.52223e+07
-9.57689e+07
-9.57546e+07
-9.51628e+07
-9.53684e+07
-9.50987e+07
-9.441e+07
-9.46976e+07
-9.46971e+07
-9.44057e+07
-9.51296e+07
-9.54811e+07
-9.53617e+07
-9.60275e+07
-9.61163e+07
-9.56228e+07
-9.59052e+07
-9.57004e+07
-9.50808e+07
-9.54346e+07
-9.54541e+07
-9.51492e+07
-9.58045e+07
-9.60495e+07
-9.58307e+07
-9.6435e+07
-9.65312e+07
-9.61405e+07
-9.66188e+07
-9.66754e+07
-9.63279e+07
-9.68919e+07
-9.70293e+07
-9.67015e+07
-9.71911e+07
-9.71745e+07
-9.66325e+07
-9.691e+07
-9.6743e+07
-9.6166e+07
-9.6549e+07
-9.65745e+07
-9.62407e+07
-9.683e+07
-9.70025e+07
-9.67132e+07
-9.72496e+07
-9.73045e+07
-9.68726e+07
-9.72832e+07
-9.72522e+07
-9.68057e+07
-9.72825e+07
-9.73788e+07
-9.70838e+07
-9.76914e+07
-9.78666e+07
-9.75715e+07
-9.81033e+07
-9.81365e+07
-9.76566e+07
-9.79961e+07
-9.78734e+07
-9.72941e+07
-9.76209e+07
-9.75815e+07
-9.71576e+07
-9.76722e+07
-9.77866e+07
-9.74628e+07
-9.79703e+07
-9.80005e+07
-9.75197e+07
-9.78599e+07
-9.77535e+07
-9.72215e+07
-9.76116e+07
-9.76583e+07
-9.73424e+07
-9.79609e+07
-9.81851e+07
-9.7951e+07
-9.85363e+07
-9.86417e+07
-9.82327e+07
-9.86401e+07
-9.85991e+07
-9.8102e+07
-9.84915e+07
-9.84897e+07
-9.8071e+07
-9.85406e+07
-9.86012e+07
-9.82108e+07
-9.86781e+07
-9.87169e+07
-9.83034e+07
-9.87605e+07
-9.88101e+07
-9.84453e+07
-9.89742e+07
-9.91195e+07
-9.88584e+07
-9.94796e+07
-9.96642e+07
-9.9391e+07
-9.99274e+07
-9.99829e+07
-9.95626e+07
-9.99558e+07
-9.98902e+07
-9.93999e+07
-9.97881e+07
-9.9767e+07
-9.93516e+07
-9.98093e+07
-9.98158e+07
-9.9366e+07
-9.96974e+07
-9.95076e+07
-9.88086e+07
-9.8871e+07
-9.84099e+07
-9.75077e+07
-9.74349e+07
-9.6917e+07
-9.60336e+07
-9.60147e+07
-9.55538e+07
-9.47085e+07
-9.47057e+07
-9.42328e+07
-9.33606e+07
-9.33636e+07
-9.296e+07
-9.22415e+07
-9.24764e+07
-9.23306e+07
-9.18287e+07
-9.21925e+07
-9.20365e+07
-9.1325e+07
-9.13127e+07
-9.06588e+07
-8.93699e+07
-8.88121e+07
-8.77415e+07
-8.62413e+07
-8.57479e+07
-8.50541e+07
-8.42008e+07
-8.45578e+07
-8.48175e+07
-8.48889e+07
-8.59972e+07
-8.67659e+07
-8.70244e+07
-8.80223e+07
-8.84573e+07
-8.82777e+07
-8.88573e+07
-8.90235e+07
-8.87781e+07
-8.94842e+07
-8.99052e+07
-8.99357e+07
-9.08219e+07
-9.12519e+07
-9.11006e+07
-9.16565e+07
-9.17129e+07
-9.12295e+07
-9.16031e+07
-9.17276e+07
-9.15505e+07
-9.24073e+07
-9.30983e+07
-9.34426e+07
-9.46725e+07
-9.55289e+07
-9.58176e+07
-9.67979e+07
-9.72992e+07
-9.72386e+07
-9.79859e+07
-9.84226e+07
-9.84754e+07
-9.94595e+07
-1.00165e+08
-1.00442e+08
-1.01547e+08
-1.02213e+08
-1.02237e+08
-1.02999e+08
-1.03234e+08
-1.02782e+08
-1.03128e+08
-1.0306e+08
-1.02397e+08
-1.0277e+08
-1.02905e+08
-1.02359e+08
-1.02932e+08
-1.03133e+08
-1.02025e+08
-1.01874e+08
-1.01281e+08
-9.9222e+07
-9.88669e+07
-9.89333e+07
-9.80464e+07
-9.94657e+07
-1.01399e+08
-1.02412e+08
-1.04479e+08
-1.05527e+08
-1.05206e+08
-1.04509e+08
-1.01996e+08
-9.90348e+07
-9.58763e+07
-9.13179e+07
-8.69291e+07
-8.20908e+07
-7.49441e+07
-6.60975e+07
-5.49783e+07
-3.99862e+07
-2.23367e+07
-3.11263e+06
1.76485e+07
3.76247e+07
5.43568e+07
6.75977e+07
7.58672e+07
7.77574e+07
7.47352e+07
6.73278e+07
5.54959e+07
4.17648e+07
2.72155e+07
1.15679e+07
-3.10058e+06
-1.6482e+07
-2.95673e+07
-4.07894e+07
-5.02273e+07
-5.90868e+07
-6.58599e+07
-7.0865e+07
-7.54648e+07
-7.82022e+07
-7.98828e+07
-8.19498e+07
-8.26205e+07
-8.30878e+07
-8.46073e+07
-8.48734e+07
-8.54652e+07
-8.73149e+07
-8.7613e+07
-8.81927e+07
-8.99069e+07
-9.04295e+07
-9.08449e+07
-9.214e+07
-9.30651e+07
-9.33748e+07
-9.4209e+07
-9.53894e+07
-9.54525e+07
-9.57672e+07
-9.66682e+07
-9.64661e+07
-9.6666e+07
-9.73273e+07
-9.70696e+07
-9.7325e+07
-9.78505e+07
-9.75241e+07
-9.78019e+07
-9.81054e+07
-9.77281e+07
-9.80758e+07
-9.82851e+07
-9.78898e+07
-9.82612e+07
-9.83319e+07
-9.78256e+07
-9.81243e+07
-9.80546e+07
-9.74665e+07
-9.7756e+07
-9.77139e+07
-9.72243e+07
-9.7656e+07
-9.77435e+07
-9.73495e+07
-9.78039e+07
-9.78002e+07
-9.72266e+07
-9.74578e+07
-9.72258e+07
-9.6482e+07
-9.66304e+07
-9.63964e+07
-9.57579e+07
-9.60982e+07
-9.60835e+07
-9.56219e+07
-9.60414e+07
-9.59911e+07
-9.53859e+07
-9.56033e+07
-9.53463e+07
-9.4584e+07
-9.47454e+07
-9.4525e+07
-9.38756e+07
-9.41776e+07
-9.40742e+07
-9.34788e+07
-9.37516e+07
-9.35478e+07
-9.27966e+07
-9.29119e+07
-9.25708e+07
-9.17401e+07
-9.18679e+07
-9.16233e+07
-9.09398e+07
-9.12257e+07
-9.11119e+07
-9.04888e+07
-9.07535e+07
-9.05465e+07
-8.97558e+07
-8.98296e+07
-8.9428e+07
-8.84768e+07
-8.84662e+07
-8.80602e+07
-8.71668e+07
-8.72477e+07
-8.69298e+07
-8.6086e+07
-8.61569e+07
-8.57565e+07
-8.47631e+07
-8.46492e+07
-8.40697e+07
-8.29282e+07
-8.2732e+07
-8.2122e+07
-8.09801e+07
-8.07876e+07
-8.01746e+07
-7.90261e+07
-7.88196e+07
-7.81654e+07
-7.6952e+07
-7.66736e+07
-7.59371e+07
-7.46505e+07
-7.43066e+07
-7.35134e+07
-7.21833e+07
-7.17816e+07
-7.08966e+07
-6.94551e+07
-6.89197e+07
-6.78814e+07
-6.62932e+07
-6.56333e+07
-6.45199e+07
-6.29435e+07
-6.23854e+07
-6.14507e+07
-6.01178e+07
-5.98154e+07
-5.91029e+07
-5.79292e+07
-5.77004e+07
-5.69749e+07
-5.57337e+07
-5.54109e+07
-5.45998e+07
-5.33466e+07
-5.30903e+07
-5.24421e+07
-5.14537e+07
-5.15044e+07
-5.11432e+07
-5.03901e+07
-5.05741e+07
-5.02514e+07
-4.94843e+07
-4.96339e+07
-4.93302e+07
-4.87044e+07
-4.91464e+07
-4.92835e+07
-4.92449e+07
-5.03343e+07
-5.11102e+07
-5.16447e+07
-5.31795e+07
-5.42623e+07
-5.49815e+07
-5.66114e+07
-5.77528e+07
-5.85466e+07
-6.02911e+07
-6.16052e+07
-6.26233e+07
-6.46089e+07
-6.61397e+07
-6.73114e+07
-6.93305e+07
-7.07735e+07
-7.17335e+07
-7.34395e+07
-7.45221e+07
-7.51167e+07
-7.6517e+07
-7.74038e+07
-7.79295e+07
-7.93737e+07
-8.03724e+07
-8.10182e+07
-8.25333e+07
-8.35119e+07
-8.40204e+07
-8.52829e+07
-8.59229e+07
-8.60326e+07
-8.6896e+07
-8.71823e+07
-8.70239e+07
-8.77236e+07
-8.79527e+07
-8.77889e+07
-8.84906e+07
-8.87067e+07
-8.84875e+07
-8.91049e+07
-8.92217e+07
-8.88909e+07
-8.94169e+07
-8.94852e+07
-8.91485e+07
-8.97015e+07
-8.98297e+07
-8.95493e+07
-9.01462e+07
-9.02975e+07
-8.99989e+07
-9.05347e+07
-9.05862e+07
-9.01813e+07
-9.06439e+07
-9.06655e+07
-9.02697e+07
-9.07594e+07
-9.08123e+07
-9.04235e+07
-9.0882e+07
-9.08915e+07
-9.04519e+07
-9.08797e+07
-9.09019e+07
-9.05173e+07
-9.10474e+07
-9.11904e+07
-9.09095e+07
-9.14997e+07
-9.16382e+07
-9.12765e+07
-9.17103e+07
-9.16427e+07
-9.10641e+07
-9.13154e+07
-9.11419e+07
-9.05463e+07
-9.08946e+07
-9.08949e+07
-9.05155e+07
-9.1055e+07
-9.1206e+07
-9.09115e+07
-9.14788e+07
-9.16032e+07
-9.12336e+07
-9.16959e+07
-9.17208e+07
-9.12714e+07
-9.16967e+07
-9.17183e+07
-9.12987e+07
-9.17695e+07
-9.1854e+07
-9.1494e+07
-9.2015e+07
-9.21236e+07
-9.17497e+07
-9.22146e+07
-9.22357e+07
-9.17492e+07
-9.21034e+07
-9.20574e+07
-9.15845e+07
-9.20333e+07
-9.21423e+07
-9.18451e+07
-9.2446e+07
-9.26441e+07
-9.23473e+07
-9.28698e+07
-9.29383e+07
-9.25017e+07
-9.29197e+07
-9.29514e+07
-9.25681e+07
-9.31188e+07
-9.33188e+07
-9.30942e+07
-9.37402e+07
-9.39428e+07
-9.36281e+07
-9.41181e+07
-9.41557e+07
-9.37104e+07
-9.41428e+07
-9.42e+07
-9.38643e+07
-9.44479e+07
-9.46547e+07
-9.44122e+07
-9.50141e+07
-9.51591e+07
-9.47984e+07
-9.52656e+07
-9.52925e+07
-9.48431e+07
-9.52737e+07
-9.53152e+07
-9.49442e+07
-9.54872e+07
-9.56487e+07
-9.5375e+07
-9.59701e+07
-9.61357e+07
-9.58058e+07
-9.62987e+07
-9.6311e+07
-9.58291e+07
-9.62201e+07
-9.62103e+07
-9.58014e+07
-9.63346e+07
-9.6516e+07
-9.63061e+07
-9.69923e+07
-9.72466e+07
-9.70098e+07
-9.75692e+07
-9.76185e+07
-9.71445e+07
-9.74971e+07
-9.74197e+07
-9.69262e+07
-9.73666e+07
-9.74542e+07
-9.71655e+07
-9.77772e+07
-9.79656e+07
-9.7685e+07
-9.82158e+07
-9.82658e+07
-9.78408e+07
-9.82762e+07
-9.82924e+07
-9.78792e+07
-9.83418e+07
-9.8378e+07
-9.79661e+07
-9.8414e+07
-9.84266e+07
-9.7988e+07
-9.8426e+07
-9.84599e+07
-9.80731e+07
-9.85839e+07
-9.8676e+07
-9.83159e+07
-9.88096e+07
-9.88393e+07
-9.83942e+07
-9.87934e+07
-9.87605e+07
-9.8289e+07
-9.87052e+07
-9.87128e+07
-9.8306e+07
-9.87904e+07
-9.88819e+07
-9.8566e+07
-9.91293e+07
-9.92664e+07
-9.8956e+07
-9.94944e+07
-9.95783e+07
-9.918e+07
-9.96155e+07
-9.96046e+07
-9.91301e+07
-9.95211e+07
-9.95048e+07
-9.90656e+07
-9.95264e+07
-9.95901e+07
-9.92216e+07
-9.97126e+07
-9.97567e+07
-9.9301e+07
-9.96514e+07
-9.95303e+07
-9.89165e+07
-9.91559e+07
-9.90213e+07
-9.85173e+07
-9.89628e+07
-9.90798e+07
-9.88097e+07
-9.94136e+07
-9.95945e+07
-9.92845e+07
-9.97682e+07
-9.97743e+07
-9.9288e+07
-9.96499e+07
-9.96021e+07
-9.9144e+07
-9.95922e+07
-9.96506e+07
-9.92897e+07
-9.97894e+07
-9.98609e+07
-9.9474e+07
-9.99314e+07
-9.99523e+07
-9.95102e+07
-9.99146e+07
-9.99001e+07
-9.94623e+07
-9.9907e+07
-9.99441e+07
-9.95624e+07
-1.00046e+08
-1.0012e+08
-9.97678e+07
-1.0026e+08
-1.00313e+08
-9.99105e+07
-1.00326e+08
-1.00279e+08
-9.97783e+07
-1.00109e+08
-9.99712e+07
-9.93914e+07
-9.96058e+07
-9.93294e+07
-9.86112e+07
-9.86606e+07
-9.81849e+07
-9.72534e+07
-9.7108e+07
-9.64937e+07
-9.5483e+07
-9.53568e+07
-9.48691e+07
-9.40908e+07
-9.42849e+07
-9.41518e+07
-9.37079e+07
-9.418e+07
-9.42099e+07
-9.37554e+07
-9.40356e+07
-9.36874e+07
-9.2689e+07
-9.23478e+07
-9.13862e+07
-8.9855e+07
-8.91563e+07
-8.811e+07
-8.67861e+07
-8.66e+07
-8.63138e+07
-8.59062e+07
-8.66895e+07
-8.73184e+07
-8.76285e+07
-8.8842e+07
-8.95955e+07
-8.97516e+07
-9.05883e+07
-9.08832e+07
-9.06193e+07
-9.11829e+07
-9.14139e+07
-9.12601e+07
-9.20524e+07
-9.25116e+07
-9.24782e+07
-9.32016e+07
-9.34174e+07
-9.30339e+07
-9.33797e+07
-9.33307e+07
-9.28597e+07
-9.33682e+07
-9.37384e+07
-9.38341e+07
-9.4937e+07
-9.58214e+07
-9.62627e+07
-9.74949e+07
-9.82694e+07
-9.84252e+07
-9.93062e+07
-9.9788e+07
-9.97889e+07
-1.00687e+08
-1.01338e+08
-1.01615e+08
-1.02805e+08
-1.03655e+08
-1.03962e+08
-1.05001e+08
-1.05512e+08
-1.05277e+08
-1.05731e+08
-1.05676e+08
-1.04942e+08
-1.05075e+08
-1.04884e+08
-1.04046e+08
-1.04314e+08
-1.044e+08
-1.03679e+08
-1.04148e+08
-1.04247e+08
-1.0295e+08
-1.02878e+08
-1.02692e+08
-1.01114e+08
-1.01493e+08
-1.0243e+08
-1.02367e+08
-1.04245e+08
-1.06092e+08
-1.06789e+08
-1.07861e+08
-1.07407e+08
-1.05802e+08
-1.03788e+08
-1.00161e+08
-9.67436e+07
-9.33048e+07
-8.83553e+07
-8.30586e+07
-7.65937e+07
-6.69495e+07
-5.4826e+07
-4.00496e+07
-2.1662e+07
-1.48983e+06
1.86618e+07
3.83452e+07
5.52752e+07
6.72191e+07
7.44803e+07
7.63541e+07
7.20828e+07
6.37259e+07
5.22004e+07
3.754e+07
2.21971e+07
7.0146e+06
-8.55089e+06
-2.26018e+07
-3.49875e+07
-4.67948e+07
-5.64437e+07
-6.40567e+07
-7.09695e+07
-7.57041e+07
-7.88971e+07
-8.21106e+07
-8.38344e+07
-8.5065e+07
-8.70793e+07
-8.7801e+07
-8.84814e+07
-9.01747e+07
-9.02025e+07
-9.03365e+07
-9.15764e+07
-9.12442e+07
-9.11785e+07
-9.2372e+07
-9.2919e+07
-9.33614e+07
-9.46632e+07
-9.59318e+07
-9.62936e+07
-9.69507e+07
-9.81511e+07
-9.80938e+07
-9.82576e+07
-9.90341e+07
-9.88521e+07
-9.9212e+07
-1.0011e+08
-1.0008e+08
-1.00536e+08
-1.01105e+08
-1.00728e+08
-1.00887e+08
-1.00927e+08
-1.00242e+08
-1.00333e+08
-1.00328e+08
-9.98337e+07
-1.00234e+08
-1.00394e+08
-1.00021e+08
-1.00455e+08
-1.00481e+08
-9.99273e+07
-1.00217e+08
-1.00153e+08
-9.96054e+07
-9.99964e+07
-1.00074e+08
-9.97002e+07
-1.0025e+08
-1.00412e+08
-1.00046e+08
-1.00519e+08
-1.00508e+08
-9.99185e+07
-1.00155e+08
-9.9921e+07
-9.91549e+07
-9.92743e+07
-9.89833e+07
-9.82078e+07
-9.83713e+07
-9.81767e+07
-9.75632e+07
-9.79359e+07
-9.79631e+07
-9.75355e+07
-9.80398e+07
-9.81186e+07
-9.76428e+07
-9.8025e+07
-9.79074e+07
-9.71998e+07
-9.73524e+07
-9.70363e+07
-9.618e+07
-9.62487e+07
-9.59028e+07
-9.50534e+07
-9.51635e+07
-9.48704e+07
-9.40543e+07
-9.41931e+07
-9.39261e+07
-9.31422e+07
-9.33231e+07
-9.31009e+07
-9.23402e+07
-9.25295e+07
-9.23144e+07
-9.15462e+07
-9.17332e+07
-9.14964e+07
-9.07009e+07
-9.08625e+07
-9.05817e+07
-8.97224e+07
-8.98137e+07
-8.945e+07
-8.84961e+07
-8.84801e+07
-8.79951e+07
-8.68822e+07
-8.66814e+07
-8.60179e+07
-8.47582e+07
-8.44819e+07
-8.38057e+07
-8.25928e+07
-8.2377e+07
-8.17381e+07
-8.05215e+07
-8.02484e+07
-7.94926e+07
-7.81179e+07
-7.76814e+07
-7.67779e+07
-7.53253e+07
-7.48912e+07
-7.40502e+07
-7.27385e+07
-7.24651e+07
-7.17548e+07
-7.05279e+07
-7.02559e+07
-6.94608e+07
-6.80913e+07
-6.76506e+07
-6.67014e+07
-6.52362e+07
-6.47743e+07
-6.38886e+07
-6.25722e+07
-6.23083e+07
-6.16174e+07
-6.04899e+07
-6.03597e+07
-5.97348e+07
-5.86279e+07
-5.84842e+07
-5.78507e+07
-5.68066e+07
-5.67796e+07
-5.63128e+07
-5.5502e+07
-5.5731e+07
-5.55186e+07
-5.49572e+07
-5.54038e+07
-5.53877e+07
-5.50254e+07
-5.56908e+07
-5.59126e+07
-5.58514e+07
-5.68823e+07
-5.7546e+07
-5.80011e+07
-5.9549e+07
-6.06984e+07
-6.1553e+07
-6.33724e+07
-6.46396e+07
-6.55005e+07
-6.72338e+07
-6.8393e+07
-6.91792e+07
-7.09054e+07
-7.2151e+07
-7.31003e+07
-7.50205e+07
-7.64478e+07
-7.74933e+07
-7.93746e+07
-8.06332e+07
-8.13673e+07
-8.28512e+07
-8.3689e+07
-8.40473e+07
-8.5248e+07
-8.5904e+07
-8.61827e+07
-8.73702e+07
-8.80341e+07
-8.8287e+07
-8.937e+07
-8.98596e+07
-8.98912e+07
-9.07444e+07
-9.10543e+07
-9.09552e+07
-9.17678e+07
-9.21193e+07
-9.20982e+07
-9.29724e+07
-9.335e+07
-9.32618e+07
-9.39745e+07
-9.41207e+07
-9.37559e+07
-9.42109e+07
-9.4156e+07
-9.36738e+07
-9.41114e+07
-9.41415e+07
-9.38154e+07
-9.44388e+07
-9.46404e+07
-9.44169e+07
-9.50628e+07
-9.52025e+07
-9.48277e+07
-9.52548e+07
-9.51777e+07
-9.46162e+07
-9.49472e+07
-9.48852e+07
-9.44316e+07
-9.49302e+07
-9.50463e+07
-9.47303e+07
-9.53002e+07
-9.54295e+07
-9.50804e+07
-9.55972e+07
-9.56573e+07
-9.52503e+07
-9.57234e+07
-9.57558e+07
-9.53326e+07
-9.57907e+07
-9.58119e+07
-9.53582e+07
-9.57844e+07
-9.57832e+07
-9.53046e+07
-9.5709e+07
-9.57242e+07
-9.52972e+07
-9.58137e+07
-9.59584e+07
-9.56748e+07
-9.63004e+07
-9.6512e+07
-9.62419e+07
-9.68207e+07
-9.69462e+07
-9.65492e+07
-9.69949e+07
-9.69962e+07
-9.65112e+07
-9.69246e+07
-9.69526e+07
-9.65506e+07
-9.70895e+07
-9.72643e+07
-9.69906e+07
-9.76106e+07
-9.78108e+07
-9.74985e+07
-9.80201e+07
-9.80878e+07
-9.76311e+07
-9.80346e+07
-9.80235e+07
-9.75639e+07
-9.80288e+07
-9.8121e+07
-9.77783e+07
-9.83364e+07
-9.84747e+07
-9.81307e+07
-9.86716e+07
-9.87905e+07
-9.8432e+07
-9.89772e+07
-9.9128e+07
-9.88405e+07
-9.9471e+07
-9.97174e+07
-9.95163e+07
-1.00197e+08
-1.00428e+08
-1.00153e+08
-1.00706e+08
-1.00757e+08
-1.00279e+08
-1.00655e+08
-1.00587e+08
-1.00096e+08
-1.00543e+08
-1.00619e+08
-1.00302e+08
-1.00912e+08
-1.01107e+08
-1.00809e+08
-1.01347e+08
-1.01391e+08
-1.00916e+08
-1.01301e+08
-1.01259e+08
-1.00808e+08
-1.01331e+08
-1.01504e+08
-1.01298e+08
-1.02022e+08
-1.02296e+08
-1.02059e+08
-1.0263e+08
-1.0266e+08
-1.02148e+08
-1.02478e+08
-1.02361e+08
-1.01838e+08
-1.02283e+08
-1.02374e+08
-1.02095e+08
-1.02738e+08
-1.02942e+08
-1.02655e+08
-1.0318e+08
-1.03187e+08
-1.02685e+08
-1.03043e+08
-1.02967e+08
-1.02492e+08
-1.02962e+08
-1.03052e+08
-1.02746e+08
-1.0335e+08
-1.03508e+08
-1.03183e+08
-1.03688e+08
-1.03708e+08
-1.03241e+08
-1.03627e+08
-1.03566e+08
-1.03075e+08
-1.03502e+08
-1.03541e+08
-1.03166e+08
-1.0369e+08
-1.03784e+08
-1.03409e+08
-1.03873e+08
-1.0386e+08
-1.03354e+08
-1.0371e+08
-1.03641e+08
-1.03161e+08
-1.03611e+08
-1.0368e+08
-1.0336e+08
-1.03941e+08
-1.04074e+08
-1.03733e+08
-1.04212e+08
-1.04185e+08
-1.03666e+08
-1.03982e+08
-1.03844e+08
-1.0329e+08
-1.03652e+08
-1.03647e+08
-1.03287e+08
-1.03858e+08
-1.04038e+08
-1.03777e+08
-1.04355e+08
-1.04435e+08
-1.03997e+08
-1.04362e+08
-1.04243e+08
-1.03695e+08
-1.04059e+08
-1.04045e+08
-1.03665e+08
-1.04187e+08
-1.04275e+08
-1.03892e+08
-1.04288e+08
-1.04145e+08
-1.03494e+08
-1.03658e+08
-1.0339e+08
-1.02743e+08
-1.03011e+08
-1.02892e+08
-1.02433e+08
-1.02827e+08
-1.02721e+08
-1.0214e+08
-1.02274e+08
-1.018e+08
-1.00822e+08
-1.00623e+08
-9.99457e+07
-9.89316e+07
-9.88612e+07
-9.84515e+07
-9.77994e+07
-9.81049e+07
-9.80257e+07
-9.75731e+07
-9.79404e+07
-9.77669e+07
-9.7026e+07
-9.69697e+07
-9.62937e+07
-9.50128e+07
-9.44586e+07
-9.33859e+07
-9.1866e+07
-9.13002e+07
-9.04859e+07
-8.9466e+07
-8.96066e+07
-8.96356e+07
-8.9482e+07
-9.03955e+07
-9.10103e+07
-9.11623e+07
-9.21047e+07
-9.25345e+07
-9.24063e+07
-9.30714e+07
-9.33535e+07
-9.32535e+07
-9.41199e+07
-9.46995e+07
-9.48585e+07
-9.58349e+07
-9.63037e+07
-9.61278e+07
-9.6596e+07
-9.65024e+07
-9.58471e+07
-9.6023e+07
-9.59565e+07
-9.56223e+07
-9.6371e+07
-9.70146e+07
-9.73637e+07
-9.86201e+07
-9.95264e+07
-9.98871e+07
-1.00956e+08
-1.01569e+08
-1.01655e+08
-1.02557e+08
-1.03176e+08
-1.03405e+08
-1.04516e+08
-1.05295e+08
-1.05574e+08
-1.06591e+08
-1.07115e+08
-1.0699e+08
-1.07625e+08
-1.07815e+08
-1.07363e+08
-1.0775e+08
-1.07769e+08
-1.07144e+08
-1.07476e+08
-1.07508e+08
-1.06784e+08
-1.07158e+08
-1.07251e+08
-1.06186e+08
-1.06205e+08
-1.05841e+08
-1.04002e+08
-1.03742e+08
-1.03758e+08
-1.02542e+08
-1.03527e+08
-1.0512e+08
-1.0567e+08
-1.07667e+08
-1.09088e+08
-1.09269e+08
-1.09366e+08
-1.07753e+08
-1.05508e+08
-1.02828e+08
-9.84641e+07
-9.42492e+07
-8.93535e+07
-8.20644e+07
-7.33815e+07
-6.25458e+07
-4.79175e+07
-3.08367e+07
-1.18481e+07
9.33111e+06
3.04998e+07
4.95822e+07
6.62905e+07
7.88631e+07
8.56176e+07
8.74372e+07
8.41749e+07
7.53692e+07
6.31769e+07
4.85311e+07
3.13455e+07
1.40322e+07
-2.62183e+06
-1.90785e+07
-3.33247e+07
-4.52143e+07
-5.58883e+07
-6.3911e+07
-6.98236e+07
-7.52221e+07
-7.87941e+07
-8.14399e+07
-8.46071e+07
-8.63947e+07
-8.78099e+07
-8.99173e+07
-9.03134e+07
-9.05767e+07
-9.1791e+07
-9.12149e+07
-9.09892e+07
-9.21935e+07
-9.22593e+07
-9.26775e+07
-9.43144e+07
-9.54826e+07
-9.61145e+07
-9.72084e+07
-9.84322e+07
-9.84527e+07
-9.86384e+07
-9.9612e+07
-9.9405e+07
-9.95204e+07
-1.00272e+08
-1.00028e+08
-1.00195e+08
-1.00804e+08
-1.00496e+08
-1.00716e+08
-1.01073e+08
-1.00699e+08
-1.00996e+08
-1.01178e+08
-1.00671e+08
-1.00861e+08
-1.008e+08
-1.00153e+08
-1.00312e+08
-1.00166e+08
-9.95398e+07
-9.97989e+07
-9.9736e+07
-9.92137e+07
-9.95646e+07
-9.95549e+07
-9.90919e+07
-9.95191e+07
-9.95705e+07
-9.91611e+07
-9.96033e+07
-9.96011e+07
-9.90781e+07
-9.93624e+07
-9.91669e+07
-9.84499e+07
-9.85703e+07
-9.82588e+07
-9.75081e+07
-9.77004e+07
-9.75331e+07
-9.6965e+07
-9.7336e+07
-9.73135e+07
-9.68109e+07
-9.71436e+07
-9.69726e+07
-9.62475e+07
-9.63451e+07
-9.59966e+07
-9.51653e+07
-9.52771e+07
-9.50251e+07
-9.43461e+07
-9.46001e+07
-9.44412e+07
-9.37891e+07
-9.40228e+07
-9.38297e+07
-9.31145e+07
-9.32959e+07
-9.30497e+07
-9.22632e+07
-9.23618e+07
-9.20422e+07
-9.12132e+07
-9.13106e+07
-9.10074e+07
-9.02106e+07
-9.03384e+07
-9.00427e+07
-8.92195e+07
-8.92867e+07
-8.88921e+07
-8.79261e+07
-8.78526e+07
-8.73471e+07
-8.63385e+07
-8.63166e+07
-8.59465e+07
-8.51067e+07
-8.5232e+07
-8.49306e+07
-8.40334e+07
-8.39714e+07
-8.33511e+07
-8.20394e+07
-8.1553e+07
-8.0571e+07
-7.9036e+07
-7.84716e+07
-7.75372e+07
-7.61475e+07
-7.57635e+07
-7.49733e+07
-7.3648e+07
-7.32135e+07
-7.22819e+07
-7.07869e+07
-7.02196e+07
-6.92201e+07
-6.77693e+07
-6.73286e+07
-6.64836e+07
-6.51705e+07
-6.48059e+07
-6.39639e+07
-6.26126e+07
-6.21941e+07
-6.12776e+07
-5.99043e+07
-5.95052e+07
-5.86711e+07
-5.7458e+07
-5.72503e+07
-5.66068e+07
-5.55607e+07
-5.54379e+07
-5.481e+07
-5.37435e+07
-5.35867e+07
-5.29591e+07
-5.19839e+07
-5.19965e+07
-5.16029e+07
-5.09197e+07
-5.12349e+07
-5.11479e+07
-5.07838e+07
-5.14026e+07
-5.16004e+07
-5.15341e+07
-5.24642e+07
-5.29927e+07
-5.32902e+07
-5.45869e+07
-5.54663e+07
-5.61176e+07
-5.77534e+07
-5.89557e+07
-5.99085e+07
-6.18209e+07
-6.32949e+07
-6.44899e+07
-6.65812e+07
-6.81456e+07
-6.93233e+07
-7.12841e+07
-7.2627e+07
-7.35203e+07
-7.51848e+07
-7.62546e+07
-7.69591e+07
-7.84988e+07
-7.95155e+07
-8.01955e+07
-8.17016e+07
-8.2645e+07
-8.31817e+07
-8.44697e+07
-8.51551e+07
-8.54266e+07
-8.64881e+07
-8.70144e+07
-8.71934e+07
-8.82036e+07
-8.87044e+07
-8.88193e+07
-8.97143e+07
-9.00573e+07
-8.99598e+07
-9.06287e+07
-9.07778e+07
-9.05177e+07
-9.10658e+07
-9.11285e+07
-9.08005e+07
-9.13012e+07
-9.13311e+07
-9.09615e+07
-9.13905e+07
-9.13404e+07
-9.08759e+07
-9.12421e+07
-9.11718e+07
-9.07152e+07
-9.11141e+07
-9.11138e+07
-9.07348e+07
-9.12095e+07
-9.12681e+07
-9.09246e+07
-9.14022e+07
-9.14304e+07
-9.10276e+07
-9.1434e+07
-9.14124e+07
-9.10005e+07
-9.14436e+07
-9.14828e+07
-9.11403e+07
-9.16173e+07
-9.16685e+07
-9.12875e+07
-9.1718e+07
-9.17392e+07
-9.13571e+07
-9.18255e+07
-9.19127e+07
-9.16254e+07
-9.21845e+07
-9.23517e+07
-9.20817e+07
-9.25673e+07
-9.25836e+07
-9.20939e+07
-9.23504e+07
-9.21762e+07
-9.15826e+07
-9.18639e+07
-9.1823e+07
-9.14242e+07
-9.19039e+07
-9.20029e+07
-9.16611e+07
-9.20849e+07
-9.20684e+07
-9.15963e+07
-9.19228e+07
-9.18724e+07
-9.1413e+07
-9.18032e+07
-9.18366e+07
-9.14774e+07
-9.19523e+07
-9.20266e+07
-9.16721e+07
-9.21322e+07
-9.21908e+07
-9.1845e+07
-9.23417e+07
-9.24731e+07
-9.21971e+07
-9.27413e+07
-9.28829e+07
-9.25598e+07
-9.30262e+07
-9.30602e+07
-9.26279e+07
-9.29698e+07
-9.28928e+07
-9.23608e+07
-9.2645e+07
-9.25705e+07
-9.21099e+07
-9.25279e+07
-9.26075e+07
-9.23047e+07
-9.28406e+07
-9.29999e+07
-9.2735e+07
-9.32759e+07
-9.3407e+07
-9.30815e+07
-9.35509e+07
-9.36152e+07
-9.32473e+07
-9.3715e+07
-9.38082e+07
-9.35028e+07
-9.40241e+07
-9.41441e+07
-9.38493e+07
-9.43636e+07
-9.44672e+07
-9.41497e+07
-9.46614e+07
-9.4787e+07
-9.44987e+07
-9.50266e+07
-9.51394e+07
-9.48186e+07
-9.52913e+07
-9.53456e+07
-9.49966e+07
-9.54864e+07
-9.56123e+07
-9.53645e+07
-9.59452e+07
-9.61299e+07
-9.58854e+07
-9.64144e+07
-9.64722e+07
-9.60472e+07
-9.63686e+07
-9.6232e+07
-9.56661e+07
-9.59138e+07
-9.57764e+07
-9.52561e+07
-9.56017e+07
-9.5587e+07
-9.52168e+07
-9.5726e+07
-9.58596e+07
-9.56129e+07
-9.61908e+07
-9.6336e+07
-9.60323e+07
-9.64742e+07
-9.64329e+07
-9.59404e+07
-9.62348e+07
-9.6127e+07
-9.5656e+07
-9.60644e+07
-9.61154e+07
-9.58246e+07
-9.63835e+07
-9.65135e+07
-9.61955e+07
-9.66264e+07
-9.65836e+07
-9.60837e+07
-9.63512e+07
-9.62095e+07
-9.56943e+07
-9.60344e+07
-9.60248e+07
-9.56654e+07
-9.61383e+07
-9.61882e+07
-9.58156e+07
-9.6211e+07
-9.61843e+07
-9.57487e+07
-9.61344e+07
-9.61369e+07
-9.57477e+07
-9.61719e+07
-9.61939e+07
-9.58135e+07
-9.62036e+07
-9.61573e+07
-9.57202e+07
-9.60803e+07
-9.60352e+07
-9.56342e+07
-9.60393e+07
-9.60219e+07
-9.56025e+07
-9.59424e+07
-9.58373e+07
-9.53348e+07
-9.56201e+07
-9.55078e+07
-9.5052e+07
-9.53861e+07
-9.52916e+07
-9.48166e+07
-9.50406e+07
-9.47398e+07
-9.39974e+07
-9.39244e+07
-9.33158e+07
-9.23143e+07
-9.20617e+07
-9.13903e+07
-9.04484e+07
-9.03735e+07
-8.99785e+07
-8.93684e+07
-8.96431e+07
-8.95648e+07
-8.91744e+07
-8.95438e+07
-8.94054e+07
-8.87422e+07
-8.86659e+07
-8.79352e+07
-8.65851e+07
-8.58333e+07
-8.45625e+07
-8.28882e+07
-8.21445e+07
-8.12132e+07
-8.01883e+07
-8.03102e+07
-8.03658e+07
-8.02837e+07
-8.11891e+07
-8.17857e+07
-8.19455e+07
-8.28039e+07
-8.31868e+07
-8.30776e+07
-8.37394e+07
-8.40928e+07
-8.41216e+07
-8.50409e+07
-8.56705e+07
-8.58718e+07
-8.67656e+07
-8.71244e+07
-8.68572e+07
-8.71707e+07
-8.69891e+07
-8.63291e+07
-8.65092e+07
-8.65479e+07
-8.63781e+07
-8.71997e+07
-8.79115e+07
-8.8322e+07
-8.9528e+07
-9.03946e+07
-9.07724e+07
-9.18247e+07
-9.25048e+07
-9.27389e+07
-9.3742e+07
-9.44705e+07
-9.47979e+07
-9.58836e+07
-9.66221e+07
-9.68665e+07
-9.77924e+07
-9.82915e+07
-9.82263e+07
-9.88986e+07
-9.91907e+07
-9.88932e+07
-9.93547e+07
-9.94276e+07
-9.88492e+07
-9.90839e+07
-9.89748e+07
-9.81443e+07
-9.83274e+07
-9.82816e+07
-9.7189e+07
-9.71496e+07
-9.68117e+07
-9.51291e+07
-9.49157e+07
-9.49664e+07
-9.38582e+07
-9.47962e+07
-9.63094e+07
-9.68292e+07
-9.87502e+07
-1.00184e+08
-1.00461e+08
-1.00655e+08
-9.92079e+07
-9.71019e+07
-9.44087e+07
-8.99242e+07
-8.55204e+07
-8.03186e+07
-7.27491e+07
-6.39301e+07
-5.30732e+07
-3.86354e+07
-2.18769e+07
-3.14893e+06
1.78461e+07
3.90228e+07
5.84698e+07
7.58427e+07
8.93126e+07
9.72022e+07
1.00159e+08
9.78697e+07
8.98628e+07
7.81642e+07
6.36789e+07
4.65017e+07
2.90256e+07
1.208e+07
-4.62374e+06
-1.91521e+07
-3.13763e+07
-4.23281e+07
-5.06785e+07
-5.69677e+07
-6.26464e+07
-6.65169e+07
-6.94475e+07
-7.27622e+07
-7.46898e+07
-7.6245e+07
-7.8405e+07
-7.89687e+07
-7.9436e+07
-8.07808e+07
-8.04257e+07
-8.04152e+07
-8.17132e+07
-8.18695e+07
-8.23837e+07
-8.40341e+07
-8.52311e+07
-8.59857e+07
-8.71907e+07
-8.85307e+07
-8.8692e+07
-8.89167e+07
-8.99042e+07
-8.97162e+07
-8.97538e+07
-9.04711e+07
-9.03101e+07
-9.0558e+07
-9.12985e+07
-9.11889e+07
-9.15346e+07
-9.20002e+07
-9.17291e+07
-9.19951e+07
-9.21148e+07
-9.15393e+07
-9.15832e+07
-9.14089e+07
-9.07448e+07
-9.08619e+07
-9.07573e+07
-9.02627e+07
-9.06035e+07
-9.06598e+07
-9.02719e+07
-9.06585e+07
-9.06523e+07
-9.01473e+07
-9.03944e+07
-9.02423e+07
-8.96358e+07
-8.98504e+07
-8.97318e+07
-8.92194e+07
-8.95494e+07
-8.95189e+07
-8.90429e+07
-8.93506e+07
-8.92191e+07
-8.86086e+07
-8.87775e+07
-8.85429e+07
-8.79048e+07
-8.81307e+07
-8.80254e+07
-8.75461e+07
-8.79254e+07
-8.7917e+07
-8.74383e+07
-8.77114e+07
-8.74993e+07
-8.67746e+07
-8.68156e+07
-8.64387e+07
-8.56485e+07
-8.57436e+07
-8.55217e+07
-8.4906e+07
-8.51552e+07
-8.50145e+07
-8.43735e+07
-8.45048e+07
-8.41679e+07
-8.32897e+07
-8.32138e+07
-8.27447e+07
-8.18306e+07
-8.18087e+07
-8.14631e+07
-8.06848e+07
-8.07801e+07
-8.04951e+07
-7.9686e+07
-7.96885e+07
-7.92535e+07
-7.82979e+07
-7.81959e+07
-7.77184e+07
-7.67926e+07
-7.6778e+07
-7.64209e+07
-7.56097e+07
-7.56794e+07
-7.53337e+07
-7.44415e+07
-7.43495e+07
-7.37747e+07
-7.2626e+07
-7.22838e+07
-7.15079e+07
-7.02207e+07
-6.98135e+07
-6.90233e+07
-6.77611e+07
-6.73968e+07
-6.6634e+07
-6.53786e+07
-6.49719e+07
-6.41039e+07
-6.26952e+07
-6.21009e+07
-6.10365e+07
-5.94791e+07
-5.87937e+07
-5.77194e+07
-5.6236e+07
-5.56696e+07
-5.46978e+07
-5.32863e+07
-5.2744e+07
-5.17425e+07
-5.02932e+07
-4.97185e+07
-4.87264e+07
-4.74004e+07
-4.70485e+07
-4.63488e+07
-4.53479e+07
-4.5283e+07
-4.47971e+07
-4.39221e+07
-4.38743e+07
-4.33006e+07
-4.23164e+07
-4.21803e+07
-4.16136e+07
-4.07991e+07
-4.09695e+07
-4.08217e+07
-4.04857e+07
-4.11367e+07
-4.14244e+07
-4.14719e+07
-4.24191e+07
-4.29479e+07
-4.32376e+07
-4.44672e+07
-4.53439e+07
-4.60533e+07
-4.7736e+07
-4.90515e+07
-5.01472e+07
-5.21039e+07
-5.35727e+07
-5.47178e+07
-5.66474e+07
-5.80535e+07
-5.91271e+07
-6.09898e+07
-6.232e+07
-6.32887e+07
-6.49917e+07
-6.61289e+07
-6.68669e+07
-6.83313e+07
-6.92587e+07
-6.9824e+07
-7.11622e+07
-7.20053e+07
-7.2504e+07
-7.37607e+07
-7.4482e+07
-7.47936e+07
-7.58133e+07
-7.62933e+07
-7.63719e+07
-7.71939e+07
-7.75386e+07
-7.75408e+07
-7.83431e+07
-7.87122e+07
-7.8725e+07
-7.94958e+07
-7.97765e+07
-7.96432e+07
-8.02393e+07
-8.03639e+07
-8.00936e+07
-8.0596e+07
-8.06854e+07
-8.04236e+07
-8.09631e+07
-8.10955e+07
-8.08367e+07
-8.13307e+07
-8.13952e+07
-8.10779e+07
-8.15535e+07
-8.16427e+07
-8.13479e+07
-8.18199e+07
-8.1871e+07
-8.14907e+07
-8.18497e+07
-8.17755e+07
-8.12996e+07
-8.16156e+07
-8.1591e+07
-8.12502e+07
-8.17543e+07
-8.19305e+07
-8.17318e+07
-8.22778e+07
-8.23799e+07
-8.20022e+07
-8.23209e+07
-8.22044e+07
-8.16795e+07
-8.19571e+07
-8.191e+07
-8.15423e+07
-8.20186e+07
-8.21568e+07
-8.1913e+07
-8.2435e+07
-8.25332e+07
-8.21784e+07
-8.25673e+07
-8.25584e+07
-8.2159e+07
-8.25845e+07
-8.26738e+07
-8.23998e+07
-8.29263e+07
-8.30658e+07
-8.27636e+07
-8.31958e+07
-8.3203e+07
-8.27542e+07
-8.30708e+07
-8.30157e+07
-8.25623e+07
-8.29232e+07
-8.29378e+07
-8.25482e+07
-8.29505e+07
-8.2985e+07
-8.25868e+07
-8.29556e+07
-8.29282e+07
-8.24551e+07
-8.27741e+07
-8.27406e+07
-8.23175e+07
-8.27151e+07
-8.27792e+07
-8.24472e+07
-8.29353e+07
-8.30755e+07
-8.28012e+07
-8.33288e+07
-8.34793e+07
-8.31861e+07
-8.36707e+07
-8.37819e+07
-8.34723e+07
-8.39736e+07
-8.41296e+07
-8.38771e+07
-8.4426e+07
-8.46088e+07
-8.43423e+07
-8.4832e+07
-8.49176e+07
-8.45491e+07
-8.49578e+07
-8.49918e+07
-8.46177e+07
-8.50616e+07
-8.51624e+07
-8.48654e+07
-8.53773e+07
-8.55172e+07
-8.52259e+07
-8.57088e+07
-8.57957e+07
-8.54489e+07
-8.58914e+07
-8.59558e+07
-8.56258e+07
-8.61323e+07
-8.62845e+07
-8.60364e+07
-8.65826e+07
-8.67237e+07
-8.64177e+07
-8.68755e+07
-8.69062e+07
-8.64933e+07
-8.68652e+07
-8.68513e+07
-8.64546e+07
-8.68912e+07
-8.69673e+07
-8.66509e+07
-8.71444e+07
-8.72356e+07
-8.68964e+07
-8.73343e+07
-8.73696e+07
-8.69932e+07
-8.74221e+07
-8.74733e+07
-8.71308e+07
-8.76123e+07
-8.77169e+07
-8.74073e+07
-8.78755e+07
-8.79145e+07
-8.75083e+07
-8.78743e+07
-8.78345e+07
-8.73939e+07
-8.77851e+07
-8.78239e+07
-8.74964e+07
-8.80008e+07
-8.8117e+07
-8.78126e+07
-8.8281e+07
-8.83174e+07
-8.79108e+07
-8.82858e+07
-8.82658e+07
-8.7841e+07
-8.82295e+07
-8.82431e+07
-8.78564e+07
-8.82805e+07
-8.83161e+07
-8.7952e+07
-8.839e+07
-8.84261e+07
-8.80371e+07
-8.84395e+07
-8.84384e+07
-8.80169e+07
-8.83885e+07
-8.8359e+07
-8.7917e+07
-8.82942e+07
-8.83065e+07
-8.79364e+07
-8.83966e+07
-8.84759e+07
-8.81495e+07
-8.86143e+07
-8.86614e+07
-8.82566e+07
-8.86372e+07
-8.86071e+07
-8.81534e+07
-8.85115e+07
-8.84923e+07
-8.80883e+07
-8.85147e+07
-8.85569e+07
-8.81758e+07
-8.85708e+07
-8.85303e+07
-8.80456e+07
-8.83442e+07
-8.82514e+07
-8.78012e+07
-8.8211e+07
-8.82814e+07
-8.80088e+07
-8.8561e+07
-8.8702e+07
-8.8406e+07
-8.88458e+07
-8.88155e+07
-8.83264e+07
-8.85923e+07
-8.841e+07
-8.7805e+07
-8.79627e+07
-8.76776e+07
-8.70044e+07
-8.70621e+07
-8.66382e+07
-8.58098e+07
-8.57128e+07
-8.51549e+07
-8.42193e+07
-8.40666e+07
-8.34954e+07
-8.25886e+07
-8.2529e+07
-8.21326e+07
-8.14764e+07
-8.1709e+07
-8.15947e+07
-8.1149e+07
-8.15011e+07
-8.13685e+07
-8.06975e+07
-8.06592e+07
-7.99839e+07
-7.86833e+07
-7.80402e+07
-7.69209e+07
-7.54291e+07
-7.49261e+07
-7.43094e+07
-7.36161e+07
-7.4103e+07
-7.45185e+07
-7.47322e+07
-7.58602e+07
-7.65802e+07
-7.67492e+07
-7.75529e+07
-7.78235e+07
-7.7562e+07
-7.80789e+07
-7.8291e+07
-7.81991e+07
-7.90514e+07
-7.96489e+07
-7.98465e+07
-8.07923e+07
-8.12435e+07
-8.10819e+07
-8.15261e+07
-8.14608e+07
-8.08762e+07
-8.11016e+07
-8.11044e+07
-8.08191e+07
-8.15001e+07
-8.20431e+07
-8.2259e+07
-8.33195e+07
-8.4056e+07
-8.43014e+07
-8.52608e+07
-8.58393e+07
-8.59529e+07
-8.68685e+07
-8.74989e+07
-8.77267e+07
-8.87709e+07
-8.95013e+07
-8.9776e+07
-9.08081e+07
-9.14187e+07
-9.14353e+07
-9.21637e+07
-9.24141e+07
-9.20362e+07
-9.24029e+07
-9.2349e+07
-9.16517e+07
-9.18767e+07
-9.18284e+07
-9.10746e+07
-9.14255e+07
-9.15037e+07
-9.04096e+07
-9.03339e+07
-8.9935e+07
-8.81672e+07
-8.80017e+07
-8.81874e+07
-8.73086e+07
-8.85607e+07
-9.03087e+07
-9.11087e+07
-9.30064e+07
-9.4037e+07
-9.37344e+07
-9.30795e+07
-9.05737e+07
-8.74815e+07
-8.39293e+07
-7.8781e+07
-7.37057e+07
-6.81136e+07
-6.035e+07
-5.1075e+07
-3.97091e+07
-2.46146e+07
-6.88309e+06
1.25744e+07
3.37757e+07
5.44686e+07
7.22508e+07
8.67158e+07
9.62478e+07
9.93202e+07
9.71596e+07
9.0195e+07
7.83998e+07
6.42803e+07
4.89885e+07
3.24516e+07
1.68213e+07
2.49205e+06
-1.13876e+07
-2.33017e+07
-3.33402e+07
-4.26753e+07
-4.98768e+07
-5.5313e+07
-6.02917e+07
-6.33996e+07
-6.54999e+07
-6.79522e+07
-6.90256e+07
-6.99333e+07
-7.18173e+07
-7.24295e+07
-7.32785e+07
-7.52079e+07
-7.5469e+07
-7.59381e+07
-7.74591e+07
-7.77598e+07
-7.81026e+07
-7.94424e+07
-8.04764e+07
-8.10786e+07
-8.2214e+07
-8.36711e+07
-8.39585e+07
-8.43063e+07
-8.51399e+07
-8.48055e+07
-8.47741e+07
-8.51827e+07
-8.47898e+07
-8.49302e+07
-8.5415e+07
-8.51969e+07
-8.55976e+07
-8.60296e+07
-8.57843e+07
-8.61383e+07
-8.62534e+07
-8.5721e+07
-8.58836e+07
-8.57662e+07
-8.51828e+07
-8.54486e+07
-8.54554e+07
-8.50736e+07
-8.55593e+07
-8.56998e+07
-8.53372e+07
-8.57138e+07
-8.56303e+07
-8.50006e+07
-8.51285e+07
-8.48471e+07
-8.41367e+07
-8.43278e+07
-8.42259e+07
-8.37692e+07
-8.42155e+07
-8.42896e+07
-8.38951e+07
-8.42718e+07
-8.41631e+07
-8.35332e+07
-8.3701e+07
-8.34475e+07
-8.27716e+07
-8.29903e+07
-8.28672e+07
-8.23697e+07
-8.27554e+07
-8.27423e+07
-8.22537e+07
-8.25656e+07
-8.24094e+07
-8.17409e+07
-8.18827e+07
-8.15901e+07
-8.0836e+07
-8.09588e+07
-8.07027e+07
-8.00188e+07
-8.02151e+07
-8.00044e+07
-7.93132e+07
-7.94603e+07
-7.91576e+07
-7.83422e+07
-7.8363e+07
-7.79555e+07
-7.70708e+07
-7.7091e+07
-7.67465e+07
-7.59641e+07
-7.61026e+07
-7.58814e+07
-7.52005e+07
-7.5392e+07
-7.5141e+07
-7.43329e+07
-7.43346e+07
-7.38391e+07
-7.27712e+07
-7.25533e+07
-7.19188e+07
-7.08132e+07
-7.06476e+07
-7.01132e+07
-6.90961e+07
-6.89668e+07
-6.83945e+07
-6.72485e+07
-6.6935e+07
-6.61606e+07
-6.48494e+07
-6.44285e+07
-6.3608e+07
-6.23061e+07
-6.19269e+07
-6.11437e+07
-5.98499e+07
-5.9424e+07
-5.85287e+07
-5.70836e+07
-5.64976e+07
-5.54451e+07
-5.39037e+07
-5.32842e+07
-5.22611e+07
-5.0821e+07
-5.03278e+07
-4.94257e+07
-4.8078e+07
-4.76318e+07
-4.67331e+07
-4.538e+07
-4.49366e+07
-4.40755e+07
-4.28346e+07
-4.25716e+07
-4.19405e+07
-4.09656e+07
-4.09372e+07
-4.04621e+07
-3.9545e+07
-3.94568e+07
-3.88315e+07
-3.77357e+07
-3.74972e+07
-3.6811e+07
-3.58179e+07
-3.58331e+07
-3.55477e+07
-3.50929e+07
-3.57126e+07
-3.60319e+07
-3.61469e+07
-3.72516e+07
-3.7973e+07
-3.84417e+07
-3.98706e+07
-4.09142e+07
-4.17364e+07
-4.35393e+07
-4.49531e+07
-4.61271e+07
-4.82078e+07
-4.98046e+07
-5.10409e+07
-5.30496e+07
-5.44635e+07
-5.54471e+07
-5.71866e+07
-5.8377e+07
-5.91898e+07
-6.08188e+07
-6.19423e+07
-6.27053e+07
-6.42651e+07
-6.52878e+07
-6.58972e+07
-6.72397e+07
-6.80031e+07
-6.83297e+07
-6.93968e+07
-6.99171e+07
-7.00391e+07
-7.09522e+07
-7.13742e+07
-7.1449e+07
-7.23705e+07
-7.28392e+07
-7.29635e+07
-7.39059e+07
-7.43598e+07
-7.44043e+07
-7.5211e+07
-7.54858e+07
-7.53145e+07
-7.59215e+07
-7.60408e+07
-7.57616e+07
-7.63084e+07
-7.64284e+07
-7.61727e+07
-7.67358e+07
-7.68522e+07
-7.65417e+07
-7.70033e+07
-7.69982e+07
-7.65648e+07
-7.69439e+07
-7.69142e+07
-7.65052e+07
-7.69328e+07
-7.69772e+07
-7.66369e+07
-7.71164e+07
-7.71851e+07
-7.68255e+07
-7.72514e+07
-7.72617e+07
-7.68621e+07
-7.73046e+07
-7.73584e+07
-7.7031e+07
-7.75383e+07
-7.76464e+07
-7.73331e+07
-7.78124e+07
-7.78658e+07
-7.74848e+07
-7.79108e+07
-7.79415e+07
-7.75728e+07
-7.80473e+07
-7.81369e+07
-7.78106e+07
-7.82942e+07
-7.83541e+07
-7.79602e+07
-7.83442e+07
-7.8307e+07
-7.78367e+07
-7.82014e+07
-7.82109e+07
-7.78479e+07
-7.83625e+07
-7.85175e+07
-7.82734e+07
-7.88427e+07
-7.89877e+07
-7.86565e+07
-7.90985e+07
-7.91042e+07
-7.86549e+07
-7.90316e+07
-7.9046e+07
-7.86673e+07
-7.91693e+07
-7.93315e+07
-7.90921e+07
-7.96817e+07
-7.98594e+07
-7.95436e+07
-7.99865e+07
-7.99847e+07
-7.94951e+07
-7.98182e+07
-7.97732e+07
-7.93235e+07
-7.97629e+07
-7.9892e+07
-7.96372e+07
-8.02542e+07
-8.05001e+07
-8.02904e+07
-8.08722e+07
-8.10078e+07
-8.06361e+07
-8.10513e+07
-8.10515e+07
-8.05909e+07
-8.09677e+07
-8.09714e+07
-8.05714e+07
-8.10466e+07
-8.11676e+07
-8.08886e+07
-8.14656e+07
-8.16448e+07
-8.13568e+07
-8.18646e+07
-8.1931e+07
-8.15313e+07
-8.19627e+07
-8.20161e+07
-8.16869e+07
-8.22522e+07
-8.24764e+07
-8.22997e+07
-8.29608e+07
-8.31897e+07
-8.2933e+07
-8.34454e+07
-8.34953e+07
-8.30785e+07
-8.35004e+07
-8.35352e+07
-8.31885e+07
-8.37282e+07
-8.38787e+07
-8.36001e+07
-8.41249e+07
-8.4174e+07
-8.37293e+07
-8.40682e+07
-8.39634e+07
-8.34529e+07
-8.38435e+07
-8.38986e+07
-8.36098e+07
-8.42151e+07
-8.44067e+07
-8.41456e+07
-8.46518e+07
-8.46549e+07
-8.41612e+07
-8.44516e+07
-8.43167e+07
-8.3805e+07
-8.41936e+07
-8.42215e+07
-8.38859e+07
-8.44083e+07
-8.4509e+07
-8.41706e+07
-8.46244e+07
-8.46185e+07
-8.4166e+07
-8.45325e+07
-8.44763e+07
-8.40237e+07
-8.44413e+07
-8.4484e+07
-8.4164e+07
-8.4719e+07
-8.48784e+07
-8.46308e+07
-8.51981e+07
-8.53005e+07
-8.49325e+07
-8.53397e+07
-8.52767e+07
-8.4779e+07
-8.51275e+07
-8.50939e+07
-8.47145e+07
-8.52303e+07
-8.53772e+07
-8.51318e+07
-8.56916e+07
-8.57777e+07
-8.5375e+07
-8.57228e+07
-8.55921e+07
-8.50201e+07
-8.52954e+07
-8.52067e+07
-8.47882e+07
-8.52863e+07
-8.54315e+07
-8.51915e+07
-8.57691e+07
-8.5868e+07
-8.54751e+07
-8.58492e+07
-8.57532e+07
-8.52057e+07
-8.5504e+07
-8.54436e+07
-8.50359e+07
-8.55435e+07
-8.5711e+07
-8.54901e+07
-8.60864e+07
-8.62235e+07
-8.58573e+07
-8.62285e+07
-8.61077e+07
-8.55139e+07
-8.57414e+07
-8.55882e+07
-8.50885e+07
-8.55076e+07
-8.56042e+07
-8.5347e+07
-8.59516e+07
-8.61382e+07
-8.58658e+07
-8.63747e+07
-8.64098e+07
-8.59732e+07
-8.63352e+07
-8.62858e+07
-8.58488e+07
-8.62843e+07
-8.6352e+07
-8.60386e+07
-8.65463e+07
-8.66029e+07
-8.61994e+07
-8.65626e+07
-8.64495e+07
-8.58985e+07
-8.61667e+07
-8.60428e+07
-8.55736e+07
-8.5999e+07
-8.60609e+07
-8.57454e+07
-8.62462e+07
-8.62939e+07
-8.58804e+07
-8.61849e+07
-8.59634e+07
-8.52802e+07
-8.53408e+07
-8.4905e+07
-8.40731e+07
-8.40353e+07
-8.35419e+07
-8.26854e+07
-8.26471e+07
-8.21558e+07
-8.12829e+07
-8.12323e+07
-8.07678e+07
-7.99934e+07
-8.0142e+07
-7.99532e+07
-7.9485e+07
-7.99187e+07
-7.99271e+07
-7.94614e+07
-7.96808e+07
-7.92598e+07
-7.81647e+07
-7.76856e+07
-7.66087e+07
-7.50251e+07
-7.43334e+07
-7.33937e+07
-7.22853e+07
-7.23473e+07
-7.23424e+07
-7.2213e+07
-7.31597e+07
-7.38522e+07
-7.4133e+07
-7.51934e+07
-7.57594e+07
-7.57659e+07
-7.64993e+07
-7.67994e+07
-7.66736e+07
-7.74404e+07
-7.79194e+07
-7.80361e+07
-7.89864e+07
-7.94971e+07
-7.94389e+07
-8.00442e+07
-8.01161e+07
-7.96068e+07
-7.98558e+07
-7.97787e+07
-7.93681e+07
-7.99446e+07
-8.03957e+07
-8.05778e+07
-8.16899e+07
-8.25225e+07
-8.28776e+07
-8.3943e+07
-8.45413e+07
-8.45819e+07
-8.53693e+07
-8.58148e+07
-8.58741e+07
-8.68231e+07
-8.75159e+07
-8.78438e+07
-8.90099e+07
-8.97771e+07
-8.99885e+07
-9.09323e+07
-9.13558e+07
-9.10962e+07
-9.15484e+07
-9.15148e+07
-9.08592e+07
-9.11059e+07
-9.10325e+07
-9.03076e+07
-9.06548e+07
-9.07534e+07
-8.98535e+07
-9.0014e+07
-8.97536e+07
-8.81215e+07
-8.78699e+07
-8.77055e+07
-8.63693e+07
-8.71302e+07
-8.85025e+07
-8.90006e+07
-9.1137e+07
-9.28899e+07
-9.33871e+07
-9.39065e+07
-9.26858e+07
-9.04199e+07
-8.76512e+07
-8.32131e+07
-7.89564e+07
-7.45685e+07
-6.85084e+07
-6.17276e+07
-5.3622e+07
-4.22885e+07
-2.8432e+07
-1.23276e+07
6.70139e+06
2.67501e+07
4.57061e+07
6.31434e+07
7.7045e+07
8.54312e+07
8.89527e+07
8.73707e+07
8.01989e+07
6.96787e+07
5.68334e+07
4.16428e+07
2.64051e+07
1.17408e+07
-3.00387e+06
-1.60703e+07
-2.74151e+07
-3.81046e+07
-4.66e+07
-5.31037e+07
-5.88744e+07
-6.24804e+07
-6.46756e+07
-6.69899e+07
-6.787e+07
-6.85013e+07
-7.01469e+07
-7.073e+07
-7.16093e+07
-7.36834e+07
-7.41971e+07
-7.48885e+07
-7.66094e+07
-7.68054e+07
-7.70672e+07
-7.83494e+07
-7.9051e+07
-7.95365e+07
-8.07872e+07
-8.21519e+07
-8.25855e+07
-8.32392e+07
-8.43981e+07
-8.43342e+07
-8.44261e+07
-8.48893e+07
-8.4453e+07
-8.45283e+07
-8.49715e+07
-8.46618e+07
-8.49711e+07
-8.54081e+07
-8.51924e+07
-8.56553e+07
-8.59898e+07
-8.56582e+07
-8.60219e+07
-8.60999e+07
-8.56194e+07
-8.59111e+07
-8.58747e+07
-8.53489e+07
-8.56588e+07
-8.56293e+07
-8.51355e+07
-8.54817e+07
-8.54491e+07
-8.49397e+07
-8.52627e+07
-8.51733e+07
-8.4607e+07
-8.48867e+07
-8.47776e+07
-8.42456e+07
-8.46195e+07
-8.46494e+07
-8.42907e+07
-8.48427e+07
-8.49981e+07
-8.4672e+07
-8.51497e+07
-8.51075e+07
-8.44854e+07
-8.46238e+07
-8.42717e+07
-8.34348e+07
-8.34942e+07
-8.3197e+07
-8.25219e+07
-8.28036e+07
-8.27172e+07
-8.21862e+07
-8.25103e+07
-8.23643e+07
-8.16824e+07
-8.18163e+07
-8.14937e+07
-8.07024e+07
-8.08437e+07
-8.06371e+07
-8.00458e+07
-8.04286e+07
-8.04464e+07
-7.99997e+07
-8.04194e+07
-8.03435e+07
-7.96865e+07
-7.98179e+07
-7.94321e+07
-7.84668e+07
-7.83602e+07
-7.78266e+07
-7.68229e+07
-7.67862e+07
-7.64034e+07
-7.55728e+07
-7.56872e+07
-7.53828e+07
-7.45375e+07
-7.45443e+07
-7.40707e+07
-7.30346e+07
-7.28879e+07
-7.23214e+07
-7.12662e+07
-7.1171e+07
-7.06919e+07
-6.97195e+07
-6.96698e+07
-6.91597e+07
-6.80692e+07
-6.78246e+07
-6.70682e+07
-6.57313e+07
-6.52906e+07
-6.44065e+07
-6.30246e+07
-6.26025e+07
-6.17632e+07
-6.04318e+07
-6.00206e+07
-5.91397e+07
-5.77195e+07
-5.71911e+07
-5.61844e+07
-5.46869e+07
-5.41485e+07
-5.32148e+07
-5.18899e+07
-5.15893e+07
-5.091e+07
-4.98216e+07
-4.96871e+07
-4.90912e+07
-4.80077e+07
-4.78066e+07
-4.70995e+07
-4.59171e+07
-4.56708e+07
-4.49803e+07
-4.39093e+07
-4.38187e+07
-4.332e+07
-4.24646e+07
-4.25666e+07
-4.22109e+07
-4.14633e+07
-4.16211e+07
-4.13097e+07
-4.06502e+07
-4.09811e+07
-4.09562e+07
-4.07263e+07
-4.15836e+07
-4.21322e+07
-4.24755e+07
-4.38354e+07
-4.47816e+07
-4.54114e+07
-4.69508e+07
-4.79968e+07
-4.87052e+07
-5.03302e+07
-5.15043e+07
-5.24012e+07
-5.42391e+07
-5.56182e+07
-5.66689e+07
-5.85757e+07
-5.99374e+07
-6.08802e+07
-6.26168e+07
-6.37845e+07
-6.4539e+07
-6.61293e+07
-6.72118e+07
-6.7936e+07
-6.95196e+07
-7.0589e+07
-7.12477e+07
-7.26744e+07
-7.34859e+07
-7.37839e+07
-7.47986e+07
-7.52055e+07
-7.51567e+07
-7.59298e+07
-7.62337e+07
-7.62206e+07
-7.71292e+07
-7.76224e+07
-7.77613e+07
-7.87412e+07
-7.91959e+07
-7.91533e+07
-7.98419e+07
-7.99599e+07
-7.9593e+07
-8.00554e+07
-8.00917e+07
-7.97741e+07
-8.03798e+07
-8.0605e+07
-8.04495e+07
-8.11328e+07
-8.13347e+07
-8.10453e+07
-8.15273e+07
-8.15107e+07
-8.10308e+07
-8.13934e+07
-8.13571e+07
-8.09486e+07
-8.14629e+07
-8.16257e+07
-8.14019e+07
-8.20553e+07
-8.22955e+07
-8.20853e+07
-8.26989e+07
-8.28635e+07
-8.25616e+07
-8.30919e+07
-8.31915e+07
-8.28454e+07
-8.33349e+07
-8.33954e+07
-8.29957e+07
-8.34235e+07
-8.34209e+07
-8.29603e+07
-8.33499e+07
-8.33422e+07
-8.29204e+07
-8.3409e+07
-8.35441e+07
-8.32764e+07
-8.38933e+07
-8.41128e+07
-8.38488e+07
-8.43895e+07
-8.44653e+07
-8.40183e+07
-8.43791e+07
-8.43113e+07
-8.37945e+07
-8.41855e+07
-8.42489e+07
-8.39425e+07
-8.45859e+07
-8.48763e+07
-8.47076e+07
-8.53718e+07
-8.55767e+07
-8.52363e+07
-8.5701e+07
-8.57363e+07
-8.53073e+07
-8.57937e+07
-8.59399e+07
-8.56716e+07
-8.63092e+07
-8.6558e+07
-8.63093e+07
-8.68682e+07
-8.69527e+07
-8.64985e+07
-8.68691e+07
-8.68353e+07
-8.63614e+07
-8.68297e+07
-8.69794e+07
-8.67355e+07
-8.74125e+07
-8.77039e+07
-8.75092e+07
-8.81398e+07
-8.83159e+07
-8.79587e+07
-8.84323e+07
-8.84696e+07
-8.80217e+07
-8.84695e+07
-8.85504e+07
-8.82211e+07
-8.88312e+07
-8.90745e+07
-8.88788e+07
-8.9574e+07
-8.98364e+07
-8.95888e+07
-9.0163e+07
-9.02547e+07
-8.98277e+07
-9.02581e+07
-9.02715e+07
-8.98524e+07
-9.03784e+07
-9.05526e+07
-9.032e+07
-9.10076e+07
-9.12666e+07
-9.10119e+07
-9.15773e+07
-9.16307e+07
-9.11411e+07
-9.15041e+07
-9.14437e+07
-9.09626e+07
-9.1432e+07
-9.15471e+07
-9.12685e+07
-9.19149e+07
-9.21253e+07
-9.18333e+07
-9.23715e+07
-9.24149e+07
-9.1952e+07
-9.23719e+07
-9.23803e+07
-9.19847e+07
-9.25473e+07
-9.27351e+07
-9.24885e+07
-9.31311e+07
-9.33127e+07
-9.29726e+07
-9.34748e+07
-9.34912e+07
-9.30322e+07
-9.34799e+07
-9.35357e+07
-9.3187e+07
-9.37839e+07
-9.39741e+07
-9.37022e+07
-9.42805e+07
-9.4363e+07
-9.39293e+07
-9.43436e+07
-9.43157e+07
-9.38334e+07
-9.42736e+07
-9.43237e+07
-9.39557e+07
-9.45021e+07
-9.46179e+07
-9.42673e+07
-9.47861e+07
-9.48376e+07
-9.44015e+07
-9.48311e+07
-9.48088e+07
-9.43408e+07
-9.47843e+07
-9.48134e+07
-9.44276e+07
-9.49798e+07
-9.51178e+07
-9.48046e+07
-9.53809e+07
-9.5504e+07
-9.51254e+07
-9.55935e+07
-9.55948e+07
-9.5114e+07
-9.55418e+07
-9.55686e+07
-9.51832e+07
-9.5747e+07
-9.59131e+07
-9.5635e+07
-9.62345e+07
-9.63365e+07
-9.58931e+07
-9.62518e+07
-9.60967e+07
-9.54517e+07
-9.57204e+07
-9.56293e+07
-9.51939e+07
-9.57893e+07
-9.60468e+07
-9.58903e+07
-9.66097e+07
-9.68131e+07
-9.64242e+07
-9.68055e+07
-9.66619e+07
-9.60086e+07
-9.62937e+07
-9.62213e+07
-9.57812e+07
-9.63439e+07
-9.65394e+07
-9.62778e+07
-9.68764e+07
-9.69723e+07
-9.6512e+07
-9.68869e+07
-9.67972e+07
-9.62401e+07
-9.66456e+07
-9.67077e+07
-9.63864e+07
-9.70391e+07
-9.73107e+07
-9.71286e+07
-9.78224e+07
-9.80326e+07
-9.76938e+07
-9.81689e+07
-9.81213e+07
-9.75534e+07
-9.78727e+07
-9.77761e+07
-9.73003e+07
-9.78093e+07
-9.79655e+07
-9.77269e+07
-9.83956e+07
-9.86034e+07
-9.82948e+07
-9.87978e+07
-9.87831e+07
-9.82483e+07
-9.8588e+07
-9.85042e+07
-9.80189e+07
-9.84711e+07
-9.84898e+07
-9.80574e+07
-9.84243e+07
-9.8185e+07
-9.73671e+07
-9.72619e+07
-9.65456e+07
-9.53552e+07
-9.50672e+07
-9.43882e+07
-9.34273e+07
-9.35192e+07
-9.32801e+07
-9.27378e+07
-9.31657e+07
-9.31465e+07
-9.2685e+07
-9.30861e+07
-9.29489e+07
-9.22681e+07
-9.23872e+07
-9.18991e+07
-9.07945e+07
-9.04642e+07
-8.95383e+07
-8.80493e+07
-8.74749e+07
-8.65277e+07
-8.52667e+07
-8.51747e+07
-8.492e+07
-8.44783e+07
-8.52461e+07
-8.5821e+07
-8.60607e+07
-8.72897e+07
-8.80983e+07
-8.8352e+07
-8.94262e+07
-8.99783e+07
-8.99542e+07
-9.08e+07
-9.12262e+07
-9.1176e+07
-9.20565e+07
-9.25183e+07
-9.24488e+07
-9.32064e+07
-9.34554e+07
-9.31e+07
-9.35547e+07
-9.3581e+07
-9.31243e+07
-9.36448e+07
-9.39483e+07
-9.39215e+07
-9.49517e+07
-9.57466e+07
-9.6117e+07
-9.73745e+07
-9.81955e+07
-9.8413e+07
-9.93934e+07
-9.99061e+07
-9.98777e+07
-1.00743e+08
-1.01282e+08
-1.01408e+08
-1.02515e+08
-1.03284e+08
-1.03549e+08
-1.04688e+08
-1.05315e+08
-1.05189e+08
-1.05812e+08
-1.05855e+08
-1.05123e+08
-1.05288e+08
-1.05066e+08
-1.04156e+08
-1.0447e+08
-1.0462e+08
-1.03892e+08
-1.04442e+08
-1.04589e+08
-1.03253e+08
-1.03264e+08
-1.03168e+08
-1.01625e+08
-1.02128e+08
-1.03157e+08
-1.03257e+08
-1.05213e+08
-1.06907e+08
-1.07455e+08
-1.08216e+08
-1.07239e+08
-1.05143e+08
-1.02543e+08
-9.81478e+07
-9.38752e+07
-8.95012e+07
-8.34469e+07
-7.68125e+07
-6.90427e+07
-5.81139e+07
-4.48186e+07
-2.93483e+07
-1.08322e+07
8.85269e+06
2.76077e+07
4.51535e+07
5.94349e+07
6.8289e+07
7.23913e+07
7.13742e+07
6.45425e+07
5.42033e+07
4.13663e+07
2.59022e+07
1.02987e+07
-4.70273e+06
-1.98174e+07
-3.3106e+07
-4.4512e+07
-5.52659e+07
-6.37294e+07
-7.01566e+07
-7.60163e+07
-7.97709e+07
-8.21644e+07
-8.48373e+07
-8.60604e+07
-8.69088e+07
-8.87018e+07
-8.91725e+07
-8.96967e+07
-9.13932e+07
-9.1411e+07
-9.16344e+07
-9.3156e+07
-9.32755e+07
-9.35929e+07
-9.51068e+07
-9.59952e+07
-9.65293e+07
-9.77861e+07
-9.89884e+07
-9.91064e+07
-9.95013e+07
-1.00447e+08
-1.00166e+08
-1.00237e+08
-1.00837e+08
-1.00531e+08
-1.0084e+08
-1.01568e+08
-1.01408e+08
-1.01853e+08
-1.02348e+08
-1.02021e+08
-1.02368e+08
-1.02505e+08
-1.01883e+08
-1.02037e+08
-1.01912e+08
-1.01224e+08
-1.01467e+08
-1.01411e+08
-1.00873e+08
-1.01318e+08
-1.01395e+08
-1.00941e+08
-1.01401e+08
-1.01415e+08
-1.00863e+08
-1.01219e+08
-1.01114e+08
-1.0047e+08
-1.00775e+08
-1.00663e+08
-1.00057e+08
-1.00426e+08
-1.00372e+08
-9.98198e+07
-1.00238e+08
-1.00204e+08
-9.96674e+07
-1.00103e+08
-1.00091e+08
-9.95797e+07
-1.00039e+08
-1.00028e+08
-9.94586e+07
-9.98206e+07
-9.9687e+07
-9.89804e+07
-9.92151e+07
-9.89845e+07
-9.82342e+07
-9.84997e+07
-9.83584e+07
-9.77372e+07
-9.81355e+07
-9.8082e+07
-9.74737e+07
-9.77975e+07
-9.75986e+07
-9.67891e+07
-9.69163e+07
-9.65614e+07
-9.56548e+07
-9.57744e+07
-9.54916e+07
-9.47329e+07
-9.50444e+07
-9.49485e+07
-9.43131e+07
-9.46635e+07
-9.44908e+07
-9.36725e+07
-9.37753e+07
-9.33267e+07
-9.22532e+07
-9.21874e+07
-9.16703e+07
-9.06337e+07
-9.06807e+07
-9.03093e+07
-8.93983e+07
-8.95135e+07
-8.91209e+07
-8.80877e+07
-8.80233e+07
-8.74226e+07
-8.62059e+07
-8.60198e+07
-8.53773e+07
-8.41849e+07
-8.40615e+07
-8.34738e+07
-8.22934e+07
-8.20993e+07
-8.13424e+07
-7.994e+07
-7.95063e+07
-7.85333e+07
-7.70093e+07
-7.65649e+07
-7.56686e+07
-7.4292e+07
-7.39989e+07
-7.32099e+07
-7.1867e+07
-7.15156e+07
-7.06027e+07
-6.91178e+07
-6.86762e+07
-6.77608e+07
-6.63928e+07
-6.61573e+07
-6.54868e+07
-6.43727e+07
-6.43283e+07
-6.37603e+07
-6.26664e+07
-6.25697e+07
-6.19149e+07
-6.076e+07
-6.06339e+07
-5.9999e+07
-5.89444e+07
-5.8973e+07
-5.85374e+07
-5.77436e+07
-5.80605e+07
-5.79194e+07
-5.74267e+07
-5.80262e+07
-5.81543e+07
-5.79233e+07
-5.87894e+07
-5.9198e+07
-5.93122e+07
-6.05711e+07
-6.14364e+07
-6.20625e+07
-6.38278e+07
-6.51337e+07
-6.60891e+07
-6.80308e+07
-6.93525e+07
-7.01926e+07
-7.19348e+07
-7.30503e+07
-7.3736e+07
-7.54178e+07
-7.65958e+07
-7.74507e+07
-7.93398e+07
-8.07051e+07
-8.16512e+07
-8.34908e+07
-8.4656e+07
-8.52585e+07
-8.66666e+07
-8.73813e+07
-8.75925e+07
-8.87256e+07
-8.93087e+07
-8.95043e+07
-9.07057e+07
-9.13777e+07
-9.16055e+07
-9.27365e+07
-9.32295e+07
-9.31802e+07
-9.39912e+07
-9.41872e+07
-9.39122e+07
-9.45957e+07
-9.47868e+07
-9.46046e+07
-9.54431e+07
-9.58026e+07
-9.57242e+07
-9.65618e+07
-9.68147e+07
-9.65335e+07
-9.71341e+07
-9.7158e+07
-9.67179e+07
-9.72551e+07
-9.73338e+07
-9.70183e+07
-9.77051e+07
-9.79075e+07
-9.76169e+07
-9.82247e+07
-9.82662e+07
-9.77636e+07
-9.81629e+07
-9.80647e+07
-9.75211e+07
-9.79854e+07
-9.80291e+07
-9.76642e+07
-9.82947e+07
-9.84607e+07
-9.81203e+07
-9.86865e+07
-9.8716e+07
-9.81961e+07
-9.85905e+07
-9.85013e+07
-9.79431e+07
-9.83976e+07
-9.84436e+07
-9.80713e+07
-9.87249e+07
-9.89339e+07
-9.86641e+07
-9.93245e+07
-9.94553e+07
-9.90324e+07
-9.95138e+07
-9.94839e+07
-9.89558e+07
-9.94194e+07
-9.94724e+07
-9.91046e+07
-9.97729e+07
-1.00035e+08
-9.98471e+07
-1.00627e+08
-1.00901e+08
-1.00605e+08
-1.01186e+08
-1.01221e+08
-1.00694e+08
-1.01116e+08
-1.01108e+08
-1.0065e+08
-1.01231e+08
-1.01415e+08
-1.01127e+08
-1.01801e+08
-1.01976e+08
-1.01588e+08
-1.021e+08
-1.02091e+08
-1.01551e+08
-1.01986e+08
-1.01996e+08
-1.01564e+08
-1.02148e+08
-1.02311e+08
-1.01997e+08
-1.0263e+08
-1.02739e+08
-1.02287e+08
-1.02739e+08
-1.02681e+08
-1.02132e+08
-1.02607e+08
-1.02695e+08
-1.02396e+08
-1.03153e+08
-1.03486e+08
-1.03338e+08
-1.04102e+08
-1.04301e+08
-1.03899e+08
-1.04345e+08
-1.04236e+08
-1.03619e+08
-1.04002e+08
-1.03984e+08
-1.03598e+08
-1.04296e+08
-1.04608e+08
-1.04484e+08
-1.05318e+08
-1.05626e+08
-1.0536e+08
-1.05958e+08
-1.05984e+08
-1.05465e+08
-1.05907e+08
-1.05898e+08
-1.05485e+08
-1.0613e+08
-1.06353e+08
-1.0613e+08
-1.06863e+08
-1.07042e+08
-1.06654e+08
-1.07154e+08
-1.07084e+08
-1.0652e+08
-1.06959e+08
-1.06983e+08
-1.06636e+08
-1.07356e+08
-1.07664e+08
-1.07515e+08
-1.08316e+08
-1.08568e+08
-1.08239e+08
-1.08792e+08
-1.08793e+08
-1.08287e+08
-1.08765e+08
-1.08794e+08
-1.08397e+08
-1.09004e+08
-1.09119e+08
-1.08724e+08
-1.09227e+08
-1.09159e+08
-1.08539e+08
-1.08845e+08
-1.0867e+08
-1.08058e+08
-1.08512e+08
-1.08597e+08
-1.08311e+08
-1.09087e+08
-1.09426e+08
-1.09279e+08
-1.10043e+08
-1.10237e+08
-1.09857e+08
-1.1035e+08
-1.10274e+08
-1.09688e+08
-1.10048e+08
-1.09917e+08
-1.09339e+08
-1.09744e+08
-1.0967e+08
-1.09139e+08
-1.09583e+08
-1.0955e+08
-1.09072e+08
-1.09595e+08
-1.09675e+08
-1.09323e+08
-1.09954e+08
-1.10127e+08
-1.09826e+08
-1.10462e+08
-1.10571e+08
-1.10144e+08
-1.10604e+08
-1.10512e+08
-1.09907e+08
-1.10243e+08
-1.10085e+08
-1.09486e+08
-1.09912e+08
-1.09917e+08
-1.09513e+08
-1.10128e+08
-1.10303e+08
-1.10012e+08
-1.10665e+08
-1.10809e+08
-1.10434e+08
-1.10969e+08
-1.10992e+08
-1.10533e+08
-1.11039e+08
-1.11079e+08
-1.10678e+08
-1.11248e+08
-1.11323e+08
-1.10927e+08
-1.1145e+08
-1.11437e+08
-1.10918e+08
-1.11337e+08
-1.11273e+08
-1.1076e+08
-1.11241e+08
-1.11296e+08
-1.10911e+08
-1.11493e+08
-1.11582e+08
-1.11158e+08
-1.11629e+08
-1.11562e+08
-1.1096e+08
-1.11281e+08
-1.11111e+08
-1.10489e+08
-1.10866e+08
-1.108e+08
-1.10318e+08
-1.10842e+08
-1.10905e+08
-1.1053e+08
-1.11116e+08
-1.11191e+08
-1.10757e+08
-1.11233e+08
-1.11176e+08
-1.10624e+08
-1.11006e+08
-1.10913e+08
-1.10417e+08
-1.10933e+08
-1.11017e+08
-1.10697e+08
-1.11333e+08
-1.11425e+08
-1.10955e+08
-1.11288e+08
-1.10982e+08
-1.10112e+08
-1.10128e+08
-1.09656e+08
-1.08806e+08
-1.08972e+08
-1.08715e+08
-1.08085e+08
-1.08366e+08
-1.08067e+08
-1.07238e+08
-1.07221e+08
-1.06616e+08
-1.05571e+08
-1.055e+08
-1.05023e+08
-1.04277e+08
-1.04618e+08
-1.04574e+08
-1.04172e+08
-1.04694e+08
-1.04625e+08
-1.03987e+08
-1.04135e+08
-1.03604e+08
-1.02463e+08
-1.02166e+08
-1.01284e+08
-9.98707e+07
-9.9384e+07
-9.84293e+07
-9.70642e+07
-9.67734e+07
-9.62036e+07
-9.5413e+07
-9.58801e+07
-9.61787e+07
-9.62372e+07
-9.74021e+07
-9.81418e+07
-9.83238e+07
-9.93178e+07
-9.97135e+07
-9.95078e+07
-1.00207e+08
-1.00504e+08
-1.0041e+08
-1.0137e+08
-1.01951e+08
-1.02038e+08
-1.02971e+08
-1.03307e+08
-1.0296e+08
-1.03371e+08
-1.03241e+08
-1.02601e+08
-1.02983e+08
-1.03138e+08
-1.0301e+08
-1.0401e+08
-1.04763e+08
-1.05095e+08
-1.06348e+08
-1.07127e+08
-1.07301e+08
-1.08296e+08
-1.08826e+08
-1.08845e+08
-1.09817e+08
-1.10432e+08
-1.10588e+08
-1.11683e+08
-1.12331e+08
-1.12409e+08
-1.13359e+08
-1.13797e+08
-1.13573e+08
-1.14259e+08
-1.14463e+08
-1.13988e+08
-1.14448e+08
-1.14431e+08
-1.13598e+08
-1.13833e+08
-1.13712e+08
-1.1265e+08
-1.1285e+08
-1.12662e+08
-1.11115e+08
-1.1098e+08
-1.1076e+08
-1.09187e+08
-1.09668e+08
-1.10611e+08
-1.10511e+08
-1.12336e+08
-1.13992e+08
-1.14517e+08
-1.15492e+08
-1.14889e+08
-1.13239e+08
-1.11222e+08
-1.07423e+08
-1.03797e+08
-1.00024e+08
-9.44693e+07
-8.84605e+07
-8.12783e+07
-7.08649e+07
-5.80847e+07
-4.28736e+07
-2.41486e+07
-3.78203e+06
1.63706e+07
3.6083e+07
5.30884e+07
6.50766e+07
7.2478e+07
7.44947e+07
7.01865e+07
6.168e+07
4.98157e+07
3.4519e+07
1.8445e+07
2.49243e+06
-1.38521e+07
-2.84238e+07
-4.10693e+07
-5.29591e+07
-6.24142e+07
-6.97304e+07
-7.64391e+07
-8.10029e+07
-8.41768e+07
-8.76105e+07
-8.95559e+07
-9.10234e+07
-9.33181e+07
-9.41265e+07
-9.47714e+07
-9.64258e+07
-9.63141e+07
-9.6308e+07
-9.75582e+07
-9.7296e+07
-9.73134e+07
-9.86753e+07
-9.93743e+07
-9.98532e+07
-1.01182e+08
-1.02446e+08
-1.02702e+08
-1.03294e+08
-1.0449e+08
-1.04393e+08
-1.04578e+08
-1.05348e+08
-1.05083e+08
-1.05375e+08
-1.06126e+08
-1.05904e+08
-1.06263e+08
-1.06754e+08
-1.06376e+08
-1.06689e+08
-1.06871e+08
-1.06303e+08
-1.06529e+08
-1.06521e+08
-1.05929e+08
-1.06283e+08
-1.06356e+08
-1.05946e+08
-1.06523e+08
-1.06713e+08
-1.06342e+08
-1.06861e+08
-1.06876e+08
-1.06272e+08
-1.06561e+08
-1.06378e+08
-1.05675e+08
-1.05982e+08
-1.05902e+08
-1.05379e+08
-1.05888e+08
-1.05957e+08
-1.0549e+08
-1.0593e+08
-1.05807e+08
-1.05063e+08
-1.0521e+08
-1.04841e+08
-1.03956e+08
-1.04113e+08
-1.03891e+08
-1.0327e+08
-1.03752e+08
-1.03827e+08
-1.03421e+08
-1.03986e+08
-1.03993e+08
-1.03384e+08
-1.03671e+08
-1.03396e+08
-1.02551e+08
-1.02701e+08
-1.02397e+08
-1.01617e+08
-1.0191e+08
-1.01774e+08
-1.01133e+08
-1.01507e+08
-1.01373e+08
-1.00628e+08
-1.00824e+08
-1.00463e+08
-9.94912e+07
-9.95134e+07
-9.90644e+07
-9.81125e+07
-9.82632e+07
-9.80147e+07
-9.7254e+07
-9.753e+07
-9.72853e+07
-9.64062e+07
-9.64854e+07
-9.60081e+07
-9.49206e+07
-9.48758e+07
-9.43856e+07
-9.34042e+07
-9.35539e+07
-9.32915e+07
-9.24836e+07
-9.26889e+07
-9.23138e+07
-9.12153e+07
-9.10136e+07
-9.01963e+07
-8.87233e+07
-8.8297e+07
-8.74361e+07
-8.61031e+07
-8.59285e+07
-8.53273e+07
-8.41586e+07
-8.39748e+07
-8.31692e+07
-8.16478e+07
-8.10386e+07
-7.98435e+07
-7.80788e+07
-7.74331e+07
-7.63956e+07
-7.49646e+07
-7.47121e+07
-7.40176e+07
-7.28075e+07
-7.25875e+07
-7.17485e+07
-7.02843e+07
-6.98018e+07
-6.87599e+07
-6.72582e+07
-6.69286e+07
-6.62181e+07
-6.51769e+07
-6.53227e+07
-6.50116e+07
-6.42337e+07
-6.44487e+07
-6.40161e+07
-6.30007e+07
-6.29342e+07
-6.2288e+07
-6.12303e+07
-6.13125e+07
-6.09798e+07
-6.03592e+07
-6.09053e+07
-6.09928e+07
-6.07193e+07
-6.15093e+07
-6.17687e+07
-6.16845e+07
-6.27265e+07
-6.33442e+07
-6.37416e+07
-6.53465e+07
-6.65483e+07
-6.74772e+07
-6.94876e+07
-7.0936e+07
-7.19553e+07
-7.39228e+07
-7.525e+07
-7.61241e+07
-7.79759e+07
-7.92587e+07
-8.01516e+07
-8.20505e+07
-8.33621e+07
-8.42246e+07
-8.59979e+07
-8.7094e+07
-8.76692e+07
-8.91018e+07
-8.9864e+07
-9.01271e+07
-9.13061e+07
-9.189e+07
-9.2047e+07
-9.31896e+07
-9.38025e+07
-9.40384e+07
-9.52898e+07
-9.60098e+07
-9.62972e+07
-9.75138e+07
-9.80989e+07
-9.81345e+07
-9.90082e+07
-9.92113e+07
-9.8868e+07
-9.94336e+07
-9.94505e+07
-9.90548e+07
-9.96859e+07
-9.98438e+07
-9.95981e+07
-1.00328e+08
-1.00501e+08
-1.00149e+08
-1.00672e+08
-1.0061e+08
-1.00046e+08
-1.00449e+08
-1.00394e+08
-9.99588e+07
-1.00579e+08
-1.00781e+08
-1.0055e+08
-1.01279e+08
-1.01463e+08
-1.01096e+08
-1.01614e+08
-1.01568e+08
-1.01015e+08
-1.01445e+08
-1.01417e+08
-1.00963e+08
-1.01521e+08
-1.01617e+08
-1.01229e+08
-1.01771e+08
-1.01774e+08
-1.01222e+08
-1.01587e+08
-1.0145e+08
-1.00848e+08
-1.01289e+08
-1.01339e+08
-1.00993e+08
-1.01695e+08
-1.01948e+08
-1.01697e+08
-1.02366e+08
-1.02478e+08
-1.02019e+08
-1.0249e+08
-1.02471e+08
-1.01976e+08
-1.02511e+08
-1.02626e+08
-1.02285e+08
-1.02944e+08
-1.03113e+08
-1.02733e+08
-1.03258e+08
-1.0324e+08
-1.0266e+08
-1.03028e+08
-1.02931e+08
-1.02362e+08
-1.02831e+08
-1.02906e+08
-1.02533e+08
-1.03184e+08
-1.03382e+08
-1.03044e+08
-1.03639e+08
-1.03702e+08
-1.03179e+08
-1.0359e+08
-1.03516e+08
-1.02944e+08
-1.03404e+08
-1.03464e+08
-1.03088e+08
-1.03757e+08
-1.03979e+08
-1.03671e+08
-1.04295e+08
-1.04372e+08
-1.03864e+08
-1.04283e+08
-1.04201e+08
-1.03632e+08
-1.04116e+08
-1.04229e+08
-1.03946e+08
-1.04744e+08
-1.05109e+08
-1.04968e+08
-1.05759e+08
-1.05971e+08
-1.05581e+08
-1.06097e+08
-1.06086e+08
-1.0558e+08
-1.06107e+08
-1.06199e+08
-1.05837e+08
-1.06481e+08
-1.06623e+08
-1.06233e+08
-1.06779e+08
-1.06787e+08
-1.06263e+08
-1.06717e+08
-1.06697e+08
-1.06215e+08
-1.06768e+08
-1.06874e+08
-1.06522e+08
-1.07184e+08
-1.07347e+08
-1.06992e+08
-1.07592e+08
-1.07649e+08
-1.07169e+08
-1.07653e+08
-1.07625e+08
-1.07116e+08
-1.07639e+08
-1.07709e+08
-1.07343e+08
-1.08025e+08
-1.08252e+08
-1.08009e+08
-1.08746e+08
-1.0893e+08
-1.08554e+08
-1.091e+08
-1.09084e+08
-1.08542e+08
-1.0899e+08
-1.08972e+08
-1.08522e+08
-1.09136e+08
-1.09309e+08
-1.09015e+08
-1.09695e+08
-1.09834e+08
-1.09421e+08
-1.09922e+08
-1.09884e+08
-1.09342e+08
-1.09821e+08
-1.0985e+08
-1.0944e+08
-1.10054e+08
-1.10175e+08
-1.09781e+08
-1.10329e+08
-1.10322e+08
-1.09778e+08
-1.10206e+08
-1.10142e+08
-1.09624e+08
-1.10155e+08
-1.1023e+08
-1.0985e+08
-1.10473e+08
-1.10589e+08
-1.1019e+08
-1.10748e+08
-1.10778e+08
-1.10297e+08
-1.10792e+08
-1.1078e+08
-1.10272e+08
-1.10778e+08
-1.10803e+08
-1.10354e+08
-1.10917e+08
-1.10996e+08
-1.10585e+08
-1.11161e+08
-1.11229e+08
-1.10777e+08
-1.11281e+08
-1.11255e+08
-1.1071e+08
-1.11143e+08
-1.11077e+08
-1.10515e+08
-1.10955e+08
-1.10919e+08
-1.10409e+08
-1.10914e+08
-1.10941e+08
-1.10481e+08
-1.11019e+08
-1.11066e+08
-1.10618e+08
-1.11174e+08
-1.11248e+08
-1.10857e+08
-1.11482e+08
-1.11616e+08
-1.11258e+08
-1.11887e+08
-1.11995e+08
-1.11564e+08
-1.1208e+08
-1.12057e+08
-1.11503e+08
-1.11935e+08
-1.11892e+08
-1.1139e+08
-1.11919e+08
-1.11995e+08
-1.11592e+08
-1.12179e+08
-1.12242e+08
-1.1175e+08
-1.1219e+08
-1.12073e+08
-1.11409e+08
-1.11734e+08
-1.11603e+08
-1.11048e+08
-1.11577e+08
-1.11702e+08
-1.11398e+08
-1.12128e+08
-1.12357e+08
-1.12039e+08
-1.12652e+08
-1.12699e+08
-1.12192e+08
-1.12647e+08
-1.12601e+08
-1.12085e+08
-1.12582e+08
-1.12583e+08
-1.12082e+08
-1.12543e+08
-1.12452e+08
-1.11834e+08
-1.12187e+08
-1.12035e+08
-1.11435e+08
-1.11891e+08
-1.11914e+08
-1.11538e+08
-1.12207e+08
-1.12378e+08
-1.12036e+08
-1.12604e+08
-1.12568e+08
-1.11948e+08
-1.12228e+08
-1.11926e+08
-1.11118e+08
-1.11288e+08
-1.10933e+08
-1.10125e+08
-1.10281e+08
-1.09875e+08
-1.08981e+08
-1.09007e+08
-1.08435e+08
-1.07365e+08
-1.07254e+08
-1.06615e+08
-1.05576e+08
-1.05621e+08
-1.0527e+08
-1.0463e+08
-1.05142e+08
-1.05225e+08
-1.04883e+08
-1.05499e+08
-1.05457e+08
-1.04739e+08
-1.04792e+08
-1.04083e+08
-1.02657e+08
-1.02102e+08
-1.00973e+08
-9.93794e+07
-9.89501e+07
-9.82502e+07
-9.73251e+07
-9.77078e+07
-9.78799e+07
-9.77693e+07
-9.88219e+07
-9.94648e+07
-9.96002e+07
-1.00693e+08
-1.01227e+08
-1.01161e+08
-1.02005e+08
-1.02328e+08
-1.02121e+08
-1.02915e+08
-1.03272e+08
-1.03144e+08
-1.04023e+08
-1.04418e+08
-1.0427e+08
-1.05058e+08
-1.05314e+08
-1.05001e+08
-1.0562e+08
-1.05768e+08
-1.05409e+08
-1.06063e+08
-1.06356e+08
-1.06208e+08
-1.07093e+08
-1.07584e+08
-1.07587e+08
-1.08581e+08
-1.09144e+08
-1.09214e+08
-1.1029e+08
-1.10961e+08
-1.11161e+08
-1.12349e+08
-1.13084e+08
-1.13272e+08
-1.14368e+08
-1.14905e+08
-1.14789e+08
-1.15587e+08
-1.15812e+08
-1.15333e+08
-1.15783e+08
-1.15691e+08
-1.14907e+08
-1.15214e+08
-1.15124e+08
-1.14301e+08
-1.14737e+08
-1.14823e+08
-1.13774e+08
-1.13948e+08
-1.13632e+08
-1.11869e+08
-1.11736e+08
-1.11678e+08
-1.1038e+08
-1.11348e+08
-1.12763e+08
-1.13169e+08
-1.15217e+08
-1.16633e+08
-1.16744e+08
-1.16985e+08
-1.15435e+08
-1.13004e+08
-1.10312e+08
-1.05909e+08
-1.01638e+08
-9.72209e+07
-9.08018e+07
-8.33013e+07
-7.43277e+07
-6.18276e+07
-4.67446e+07
-2.97664e+07
-1.01754e+07
9.94856e+06
2.82273e+07
4.45693e+07
5.70951e+07
6.37923e+07
6.57711e+07
6.29505e+07
5.46983e+07
4.3532e+07
3.0407e+07
1.49729e+07
-303943
-1.48853e+07
-2.9695e+07
-4.26977e+07
-5.38369e+07
-6.43836e+07
-7.2528e+07
-7.85602e+07
-8.40411e+07
-8.73378e+07
-8.92945e+07
-9.16726e+07
-9.2598e+07
-9.32708e+07
-9.51237e+07
-9.5714e+07
-9.64633e+07
-9.84986e+07
-9.87992e+07
-9.92108e+07
-1.00864e+08
-1.01017e+08
-1.01197e+08
-1.0258e+08
-1.0338e+08
-1.03774e+08
-1.04986e+08
-1.0624e+08
-1.06375e+08
-1.06855e+08
-1.07843e+08
-1.07591e+08
-1.07793e+08
-1.08418e+08
-1.08122e+08
-1.08505e+08
-1.09155e+08
-1.08887e+08
-1.09295e+08
-1.09643e+08
-1.09192e+08
-1.0954e+08
-1.09664e+08
-1.0908e+08
-1.09412e+08
-1.09405e+08
-1.08813e+08
-1.09203e+08
-1.09197e+08
-1.08649e+08
-1.09128e+08
-1.09168e+08
-1.08659e+08
-1.09138e+08
-1.09116e+08
-1.08505e+08
-1.08859e+08
-1.08695e+08
-1.07975e+08
-1.08287e+08
-1.08127e+08
-1.07475e+08
-1.07905e+08
-1.07877e+08
-1.07335e+08
-1.07817e+08
-1.07751e+08
-1.07095e+08
-1.07419e+08
-1.0719e+08
-1.06417e+08
-1.06697e+08
-1.06511e+08
-1.05862e+08
-1.0632e+08
-1.06305e+08
-1.0576e+08
-1.06224e+08
-1.06116e+08
-1.05403e+08
-1.05679e+08
-1.05408e+08
-1.04593e+08
-1.0487e+08
-1.04671e+08
-1.0397e+08
-1.04362e+08
-1.0424e+08
-1.03546e+08
-1.03869e+08
-1.03632e+08
-1.02792e+08
-1.0299e+08
-1.02656e+08
-1.01761e+08
-1.01951e+08
-1.01654e+08
-1.008e+08
-1.01032e+08
-1.00752e+08
-9.9893e+07
-1.00107e+08
-9.97985e+07
-9.8888e+07
-9.90377e+07
-9.86375e+07
-9.75949e+07
-9.75873e+07
-9.70076e+07
-9.57997e+07
-9.56698e+07
-9.50383e+07
-9.38511e+07
-9.38049e+07
-9.32797e+07
-9.21774e+07
-9.21648e+07
-9.16004e+07
-9.03931e+07
-9.02313e+07
-8.95015e+07
-8.81619e+07
-8.79148e+07
-8.71403e+07
-8.57789e+07
-8.55017e+07
-8.46522e+07
-8.31676e+07
-8.2725e+07
-8.16856e+07
-8.00493e+07
-7.95299e+07
-7.84991e+07
-7.69941e+07
-7.66714e+07
-7.58572e+07
-7.45395e+07
-7.43245e+07
-7.35309e+07
-7.214e+07
-7.18011e+07
-7.08773e+07
-6.94391e+07
-6.9157e+07
-6.83978e+07
-6.72392e+07
-6.72906e+07
-6.68469e+07
-6.59144e+07
-6.60367e+07
-6.55054e+07
-6.43835e+07
-6.42661e+07
-6.35284e+07
-6.23413e+07
-6.23473e+07
-6.194e+07
-6.1284e+07
-6.19371e+07
-6.22118e+07
-6.22017e+07
-6.33728e+07
-6.40053e+07
-6.42067e+07
-6.54801e+07
-6.61766e+07
-6.64922e+07
-6.79709e+07
-6.89808e+07
-6.97033e+07
-7.16171e+07
-7.30342e+07
-7.40838e+07
-7.61922e+07
-7.76587e+07
-7.86315e+07
-8.05739e+07
-8.18467e+07
-8.26464e+07
-8.44523e+07
-8.56487e+07
-8.64104e+07
-8.81833e+07
-8.93229e+07
-8.99727e+07
-9.15619e+07
-9.2472e+07
-9.2853e+07
-9.41778e+07
-9.4829e+07
-9.49809e+07
-9.61181e+07
-9.66367e+07
-9.67076e+07
-9.77922e+07
-9.82887e+07
-9.83428e+07
-9.94079e+07
-9.98548e+07
-9.97949e+07
-1.00683e+08
-1.00917e+08
-1.00621e+08
-1.01286e+08
-1.01356e+08
-1.00966e+08
-1.01628e+08
-1.01779e+08
-1.01514e+08
-1.02302e+08
-1.02546e+08
-1.02281e+08
-1.02972e+08
-1.03036e+08
-1.02536e+08
-1.03e+08
-1.02906e+08
-1.02341e+08
-1.02834e+08
-1.02857e+08
-1.02451e+08
-1.03104e+08
-1.03257e+08
-1.02911e+08
-1.03552e+08
-1.03634e+08
-1.03176e+08
-1.03692e+08
-1.03661e+08
-1.03126e+08
-1.03619e+08
-1.03627e+08
-1.03175e+08
-1.03774e+08
-1.03896e+08
-1.03519e+08
-1.0416e+08
-1.04272e+08
-1.03855e+08
-1.04437e+08
-1.04499e+08
-1.04061e+08
-1.04657e+08
-1.04767e+08
-1.04357e+08
-1.04943e+08
-1.04994e+08
-1.04472e+08
-1.04913e+08
-1.04821e+08
-1.04196e+08
-1.04635e+08
-1.04648e+08
-1.04207e+08
-1.04872e+08
-1.05099e+08
-1.04816e+08
-1.05542e+08
-1.0572e+08
-1.05295e+08
-1.05829e+08
-1.05811e+08
-1.05228e+08
-1.05674e+08
-1.05654e+08
-1.05145e+08
-1.05712e+08
-1.05808e+08
-1.05378e+08
-1.05981e+08
-1.06078e+08
-1.05635e+08
-1.06216e+08
-1.06309e+08
-1.05878e+08
-1.0649e+08
-1.06605e+08
-1.06181e+08
-1.06769e+08
-1.06846e+08
-1.06375e+08
-1.06934e+08
-1.07018e+08
-1.06591e+08
-1.07227e+08
-1.0737e+08
-1.06967e+08
-1.07576e+08
-1.0764e+08
-1.07124e+08
-1.076e+08
-1.07553e+08
-1.0698e+08
-1.0747e+08
-1.0748e+08
-1.06991e+08
-1.07557e+08
-1.07616e+08
-1.07144e+08
-1.07708e+08
-1.07773e+08
-1.07352e+08
-1.08018e+08
-1.08221e+08
-1.07958e+08
-1.08772e+08
-1.09083e+08
-1.08853e+08
-1.09609e+08
-1.0977e+08
-1.09338e+08
-1.0988e+08
-1.09849e+08
-1.093e+08
-1.09814e+08
-1.0984e+08
-1.094e+08
-1.10023e+08
-1.10137e+08
-1.09733e+08
-1.10339e+08
-1.1039e+08
-1.09894e+08
-1.10422e+08
-1.10428e+08
-1.09937e+08
-1.10507e+08
-1.10585e+08
-1.10169e+08
-1.1079e+08
-1.10867e+08
-1.10385e+08
-1.10888e+08
-1.10805e+08
-1.10178e+08
-1.10577e+08
-1.10464e+08
-1.099e+08
-1.10438e+08
-1.10511e+08
-1.10132e+08
-1.10828e+08
-1.11004e+08
-1.1066e+08
-1.11317e+08
-1.11407e+08
-1.10954e+08
-1.11505e+08
-1.11515e+08
-1.11023e+08
-1.11579e+08
-1.11612e+08
-1.11131e+08
-1.11668e+08
-1.11646e+08
-1.11081e+08
-1.11527e+08
-1.11434e+08
-1.1084e+08
-1.11309e+08
-1.11306e+08
-1.10851e+08
-1.11473e+08
-1.1161e+08
-1.11251e+08
-1.11907e+08
-1.12007e+08
-1.11554e+08
-1.12088e+08
-1.12057e+08
-1.115e+08
-1.11976e+08
-1.1194e+08
-1.11434e+08
-1.12002e+08
-1.12081e+08
-1.11682e+08
-1.12319e+08
-1.12423e+08
-1.11987e+08
-1.12534e+08
-1.12503e+08
-1.11916e+08
-1.12328e+08
-1.1221e+08
-1.11601e+08
-1.12051e+08
-1.12021e+08
-1.11519e+08
-1.12059e+08
-1.12083e+08
-1.11592e+08
-1.12106e+08
-1.12073e+08
-1.11509e+08
-1.11965e+08
-1.11901e+08
-1.11351e+08
-1.11856e+08
-1.11872e+08
-1.11403e+08
-1.11959e+08
-1.11976e+08
-1.11452e+08
-1.11916e+08
-1.11829e+08
-1.11218e+08
-1.11637e+08
-1.11553e+08
-1.11001e+08
-1.11521e+08
-1.11564e+08
-1.11122e+08
-1.11704e+08
-1.11762e+08
-1.11276e+08
-1.1178e+08
-1.11739e+08
-1.11173e+08
-1.11631e+08
-1.11595e+08
-1.11085e+08
-1.11629e+08
-1.11681e+08
-1.11228e+08
-1.11777e+08
-1.11776e+08
-1.11215e+08
-1.11641e+08
-1.11539e+08
-1.1095e+08
-1.11445e+08
-1.11503e+08
-1.11137e+08
-1.11845e+08
-1.12057e+08
-1.11745e+08
-1.12385e+08
-1.12421e+08
-1.1186e+08
-1.1224e+08
-1.12064e+08
-1.11391e+08
-1.11766e+08
-1.11669e+08
-1.11141e+08
-1.11666e+08
-1.11696e+08
-1.11242e+08
-1.11776e+08
-1.11757e+08
-1.11204e+08
-1.11619e+08
-1.11475e+08
-1.10819e+08
-1.11156e+08
-1.10948e+08
-1.10252e+08
-1.10543e+08
-1.10266e+08
-1.09471e+08
-1.09604e+08
-1.09116e+08
-1.081e+08
-1.08035e+08
-1.0739e+08
-1.06302e+08
-1.0626e+08
-1.05738e+08
-1.0484e+08
-1.05053e+08
-1.04843e+08
-1.04272e+08
-1.04786e+08
-1.04793e+08
-1.04308e+08
-1.04774e+08
-1.04596e+08
-1.03811e+08
-1.03926e+08
-1.03388e+08
-1.02229e+08
-1.02001e+08
-1.01163e+08
-9.97593e+07
-9.93915e+07
-9.85892e+07
-9.74286e+07
-9.75357e+07
-9.74271e+07
-9.71149e+07
-9.8121e+07
-9.8839e+07
-9.91514e+07
-1.00476e+08
-1.01199e+08
-1.01212e+08
-1.02022e+08
-1.02162e+08
-1.01664e+08
-1.02157e+08
-1.02236e+08
-1.01933e+08
-1.028e+08
-1.0331e+08
-1.03354e+08
-1.04368e+08
-1.04806e+08
-1.04577e+08
-1.05195e+08
-1.05249e+08
-1.04723e+08
-1.05225e+08
-1.05401e+08
-1.05192e+08
-1.06113e+08
-1.067e+08
-1.06802e+08
-1.07858e+08
-1.08394e+08
-1.0832e+08
-1.09183e+08
-1.09584e+08
-1.09486e+08
-1.10431e+08
-1.10993e+08
-1.11083e+08
-1.12198e+08
-1.12864e+08
-1.12961e+08
-1.14031e+08
-1.14562e+08
-1.14376e+08
-1.15122e+08
-1.15305e+08
-1.14746e+08
-1.15228e+08
-1.15252e+08
-1.14486e+08
-1.14929e+08
-1.1499e+08
-1.13941e+08
-1.14129e+08
-1.13829e+08
-1.12059e+08
-1.11899e+08
-1.11787e+08
-1.104e+08
-1.11289e+08
-1.12673e+08
-1.13072e+08
-1.15217e+08
-1.16811e+08
-1.17109e+08
-1.1756e+08
-1.16191e+08
-1.13817e+08
-1.11157e+08
-1.06804e+08
-1.02633e+08
-9.84502e+07
-9.24214e+07
-8.55407e+07
-7.73664e+07
-6.57698e+07
-5.16342e+07
-3.54895e+07
-1.64754e+07
3.41155e+06
2.18448e+07
3.86904e+07
5.19732e+07
5.95545e+07
6.24263e+07
6.03791e+07
5.27153e+07
4.19572e+07
2.91126e+07
1.38721e+07
-1.21541e+06
-1.55396e+07
-3.00467e+07
-4.2725e+07
-5.35701e+07
-6.39428e+07
-7.20652e+07
-7.81992e+07
-8.39072e+07
-8.74984e+07
-8.97246e+07
-9.23198e+07
-9.33974e+07
-9.40955e+07
-9.58626e+07
-9.62918e+07
-9.68227e+07
-9.86584e+07
-9.8777e+07
-9.9037e+07
-1.00611e+08
-1.00708e+08
-1.00864e+08
-1.0223e+08
-1.02967e+08
-1.03304e+08
-1.04497e+08
-1.05738e+08
-1.05918e+08
-1.06519e+08
-1.07642e+08
-1.07476e+08
-1.07692e+08
-1.08281e+08
-1.07854e+08
-1.08076e+08
-1.08615e+08
-1.08266e+08
-1.0866e+08
-1.09086e+08
-1.08713e+08
-1.09149e+08
-1.09345e+08
-1.08761e+08
-1.09034e+08
-1.08949e+08
-1.08249e+08
-1.08556e+08
-1.08488e+08
-1.07892e+08
-1.08344e+08
-1.08367e+08
-1.0782e+08
-1.0826e+08
-1.08181e+08
-1.07509e+08
-1.0783e+08
-1.07652e+08
-1.06952e+08
-1.0732e+08
-1.07243e+08
-1.06672e+08
-1.07158e+08
-1.07151e+08
-1.06587e+08
-1.07039e+08
-1.06951e+08
-1.06307e+08
-1.06683e+08
-1.06533e+08
-1.05854e+08
-1.06226e+08
-1.06092e+08
-1.05404e+08
-1.0574e+08
-1.05534e+08
-1.04747e+08
-1.04991e+08
-1.04703e+08
-1.03881e+08
-1.04152e+08
-1.03949e+08
-1.03233e+08
-1.03604e+08
-1.03465e+08
-1.02745e+08
-1.03043e+08
-1.02782e+08
-1.0191e+08
-1.0208e+08
-1.01728e+08
-1.0083e+08
-1.01054e+08
-1.00819e+08
-1.00052e+08
-1.00375e+08
-1.00173e+08
-9.93486e+07
-9.9544e+07
-9.91711e+07
-9.81685e+07
-9.82373e+07
-9.7817e+07
-9.68334e+07
-9.69671e+07
-9.66121e+07
-9.56509e+07
-9.57416e+07
-9.52754e+07
-9.41477e+07
-9.40567e+07
-9.34357e+07
-9.22183e+07
-9.21279e+07
-9.15647e+07
-9.04359e+07
-9.04131e+07
-8.98524e+07
-8.86381e+07
-8.8453e+07
-8.7685e+07
-8.62684e+07
-8.594e+07
-8.50975e+07
-8.36962e+07
-8.3434e+07
-8.26552e+07
-8.12824e+07
-8.0972e+07
-8.00596e+07
-7.85046e+07
-7.79917e+07
-7.68928e+07
-7.52418e+07
-7.47297e+07
-7.37429e+07
-7.22933e+07
-7.20347e+07
-7.12835e+07
-7.00158e+07
-6.98422e+07
-6.90939e+07
-6.77944e+07
-6.75827e+07
-6.6804e+07
-6.55234e+07
-6.53697e+07
-6.46969e+07
-6.35704e+07
-6.35858e+07
-6.30747e+07
-6.21006e+07
-6.22431e+07
-6.18244e+07
-6.09474e+07
-6.11844e+07
-6.08973e+07
-6.02152e+07
-6.07079e+07
-6.07314e+07
-6.03982e+07
-6.12486e+07
-6.16187e+07
-6.16402e+07
-6.28262e+07
-6.35312e+07
-6.39147e+07
-6.5468e+07
-6.65323e+07
-6.72642e+07
-6.91258e+07
-7.04355e+07
-7.13375e+07
-7.32906e+07
-7.46337e+07
-7.55425e+07
-7.74871e+07
-7.88306e+07
-7.97421e+07
-8.16675e+07
-8.29548e+07
-8.37551e+07
-8.54921e+07
-8.65545e+07
-8.71008e+07
-8.86036e+07
-8.94618e+07
-8.98554e+07
-9.12345e+07
-9.19816e+07
-9.22515e+07
-9.34752e+07
-9.40324e+07
-9.40697e+07
-9.50387e+07
-9.53519e+07
-9.51665e+07
-9.59753e+07
-9.62155e+07
-9.6034e+07
-9.69091e+07
-9.72532e+07
-9.71643e+07
-9.80884e+07
-9.84136e+07
-9.82075e+07
-9.89397e+07
-9.90339e+07
-9.85942e+07
-9.91227e+07
-9.90781e+07
-9.85852e+07
-9.91349e+07
-9.91767e+07
-9.87869e+07
-9.94298e+07
-9.95405e+07
-9.91489e+07
-9.97232e+07
-9.97325e+07
-9.9235e+07
-9.97581e+07
-9.97933e+07
-9.93873e+07
-1.00044e+08
-1.00229e+08
-9.99489e+07
-1.00672e+08
-1.00832e+08
-1.00428e+08
-1.00948e+08
-1.00882e+08
-1.00259e+08
-1.00617e+08
-1.0048e+08
-9.98775e+07
-1.00335e+08
-1.00349e+08
-9.99188e+07
-1.00538e+08
-1.00705e+08
-1.00397e+08
-1.01112e+08
-1.01336e+08
-1.01034e+08
-1.01705e+08
-1.01833e+08
-1.01381e+08
-1.01885e+08
-1.01853e+08
-1.01278e+08
-1.01713e+08
-1.01685e+08
-1.01183e+08
-1.01728e+08
-1.01796e+08
-1.01347e+08
-1.01885e+08
-1.01896e+08
-1.01337e+08
-1.01774e+08
-1.0174e+08
-1.01218e+08
-1.0177e+08
-1.01932e+08
-1.01649e+08
-1.02452e+08
-1.0281e+08
-1.02617e+08
-1.03387e+08
-1.03585e+08
-1.03167e+08
-1.03675e+08
-1.03619e+08
-1.02998e+08
-1.03375e+08
-1.03281e+08
-1.02717e+08
-1.03216e+08
-1.03291e+08
-1.0289e+08
-1.03542e+08
-1.0373e+08
-1.03397e+08
-1.04073e+08
-1.04255e+08
-1.03908e+08
-1.04572e+08
-1.04757e+08
-1.04419e+08
-1.05092e+08
-1.0526e+08
-1.04888e+08
-1.05509e+08
-1.05609e+08
-1.05174e+08
-1.05758e+08
-1.0585e+08
-1.05452e+08
-1.0611e+08
-1.06314e+08
-1.06038e+08
-1.06808e+08
-1.07089e+08
-1.06857e+08
-1.07615e+08
-1.0784e+08
-1.07518e+08
-1.08165e+08
-1.08251e+08
-1.07803e+08
-1.08333e+08
-1.0832e+08
-1.07793e+08
-1.08276e+08
-1.08263e+08
-1.07777e+08
-1.08327e+08
-1.08382e+08
-1.07955e+08
-1.08545e+08
-1.08629e+08
-1.08212e+08
-1.08795e+08
-1.08856e+08
-1.08396e+08
-1.08915e+08
-1.08896e+08
-1.08341e+08
-1.08772e+08
-1.0866e+08
-1.08073e+08
-1.08527e+08
-1.08518e+08
-1.08108e+08
-1.08793e+08
-1.09024e+08
-1.08798e+08
-1.09574e+08
-1.09774e+08
-1.09397e+08
-1.09929e+08
-1.09869e+08
-1.09283e+08
-1.09706e+08
-1.09638e+08
-1.09141e+08
-1.09696e+08
-1.09746e+08
-1.09294e+08
-1.09812e+08
-1.09742e+08
-1.09103e+08
-1.09412e+08
-1.09183e+08
-1.0849e+08
-1.08872e+08
-1.08831e+08
-1.08406e+08
-1.09065e+08
-1.09255e+08
-1.08972e+08
-1.09657e+08
-1.09774e+08
-1.09317e+08
-1.09789e+08
-1.09688e+08
-1.09062e+08
-1.09439e+08
-1.09318e+08
-1.08756e+08
-1.09258e+08
-1.09312e+08
-1.08936e+08
-1.09609e+08
-1.09802e+08
-1.09502e+08
-1.10176e+08
-1.10283e+08
-1.09824e+08
-1.10281e+08
-1.10179e+08
-1.09546e+08
-1.09911e+08
-1.09826e+08
-1.09308e+08
-1.09848e+08
-1.09939e+08
-1.09546e+08
-1.10126e+08
-1.10164e+08
-1.09656e+08
-1.10098e+08
-1.10024e+08
-1.09467e+08
-1.09926e+08
-1.09943e+08
-1.09529e+08
-1.10152e+08
-1.10311e+08
-1.09984e+08
-1.10619e+08
-1.10694e+08
-1.10212e+08
-1.10656e+08
-1.10569e+08
-1.09984e+08
-1.10414e+08
-1.10409e+08
-1.09971e+08
-1.10575e+08
-1.10722e+08
-1.1038e+08
-1.10999e+08
-1.11063e+08
-1.10563e+08
-1.10992e+08
-1.10874e+08
-1.1025e+08
-1.10615e+08
-1.10522e+08
-1.09981e+08
-1.10476e+08
-1.1052e+08
-1.10094e+08
-1.1067e+08
-1.10724e+08
-1.1026e+08
-1.10741e+08
-1.10683e+08
-1.10131e+08
-1.10556e+08
-1.10493e+08
-1.09999e+08
-1.10534e+08
-1.10596e+08
-1.10217e+08
-1.10829e+08
-1.10913e+08
-1.10506e+08
-1.11057e+08
-1.11074e+08
-1.10592e+08
-1.11044e+08
-1.10924e+08
-1.10268e+08
-1.10482e+08
-1.10076e+08
-1.09137e+08
-1.09078e+08
-1.08425e+08
-1.07305e+08
-1.07139e+08
-1.06459e+08
-1.05375e+08
-1.0532e+08
-1.04798e+08
-1.03904e+08
-1.04062e+08
-1.03785e+08
-1.03177e+08
-1.03634e+08
-1.03638e+08
-1.03224e+08
-1.03751e+08
-1.03634e+08
-1.02848e+08
-1.02795e+08
-1.01958e+08
-1.00387e+08
-9.96324e+07
-9.83264e+07
-9.66219e+07
-9.61312e+07
-9.54722e+07
-9.47386e+07
-9.54095e+07
-9.59522e+07
-9.62465e+07
-9.76257e+07
-9.84925e+07
-9.86964e+07
-9.96656e+07
-9.99853e+07
-9.96758e+07
-1.00313e+08
-1.00569e+08
-1.00459e+08
-1.01474e+08
-1.02146e+08
-1.02348e+08
-1.03438e+08
-1.03899e+08
-1.03621e+08
-1.04067e+08
-1.039e+08
-1.03157e+08
-1.03425e+08
-1.03438e+08
-1.03159e+08
-1.04054e+08
-1.04716e+08
-1.04964e+08
-1.06148e+08
-1.06837e+08
-1.06914e+08
-1.07835e+08
-1.08278e+08
-1.08236e+08
-1.09233e+08
-1.09933e+08
-1.10234e+08
-1.11564e+08
-1.12469e+08
-1.12777e+08
-1.1391e+08
-1.14435e+08
-1.14189e+08
-1.14793e+08
-1.14871e+08
-1.1426e+08
-1.14663e+08
-1.14663e+08
-1.13965e+08
-1.14416e+08
-1.14534e+08
-1.13784e+08
-1.14261e+08
-1.14259e+08
-1.1278e+08
-1.12496e+08
-1.11899e+08
-1.09815e+08
-1.098e+08
-1.10341e+08
-1.09904e+08
-1.11819e+08
-1.13989e+08
-1.15086e+08
-1.16926e+08
-1.17285e+08
-1.1629e+08
-1.14844e+08
-1.11485e+08
-1.08042e+08
-1.04561e+08
-9.95563e+07
-9.45348e+07
-8.87523e+07
-8.00582e+07
-6.91867e+07
-5.57376e+07
-3.82935e+07
-1.85923e+07
1.78379e+06
2.26461e+07
4.15286e+07
5.59392e+07
6.60832e+07
7.08451e+07
6.9088e+07
6.2817e+07
5.27797e+07
3.88728e+07
2.37978e+07
8.48599e+06
-7.62635e+06
-2.23507e+07
-3.54982e+07
-4.82702e+07
-5.88746e+07
-6.74604e+07
-7.54807e+07
-8.12515e+07
-8.53329e+07
-8.93869e+07
-9.17551e+07
-9.33778e+07
-9.57491e+07
-9.66476e+07
-9.73275e+07
-9.90996e+07
-9.9194e+07
-9.94324e+07
-1.0098e+08
-1.00846e+08
-1.01029e+08
-1.02631e+08
-1.03306e+08
-1.03825e+08
-1.05282e+08
-1.06482e+08
-1.06749e+08
-1.07449e+08
-1.08593e+08
-1.08447e+08
-1.08638e+08
-1.09463e+08
-1.09177e+08
-1.09463e+08
-1.10244e+08
-1.09982e+08
-1.103e+08
-1.10847e+08
-1.10451e+08
-1.10762e+08
-1.11016e+08
-1.10498e+08
-1.10809e+08
-1.10906e+08
-1.10336e+08
-1.10683e+08
-1.10684e+08
-1.10087e+08
-1.10452e+08
-1.10411e+08
-1.09819e+08
-1.10237e+08
-1.1023e+08
-1.09695e+08
-1.10173e+08
-1.10181e+08
-1.09629e+08
-1.1004e+08
-1.09938e+08
-1.09273e+08
-1.09616e+08
-1.09492e+08
-1.08858e+08
-1.0928e+08
-1.0925e+08
-1.08704e+08
-1.09193e+08
-1.09171e+08
-1.08559e+08
-1.08925e+08
-1.08759e+08
-1.08008e+08
-1.08274e+08
-1.08046e+08
-1.0727e+08
-1.07543e+08
-1.0733e+08
-1.06588e+08
-1.06906e+08
-1.06752e+08
-1.06063e+08
-1.0643e+08
-1.06308e+08
-1.05629e+08
-1.05982e+08
-1.05831e+08
-1.05098e+08
-1.05409e+08
-1.05219e+08
-1.04457e+08
-1.04767e+08
-1.04592e+08
-1.03864e+08
-1.04217e+08
-1.04073e+08
-1.03313e+08
-1.03583e+08
-1.03306e+08
-1.02374e+08
-1.02474e+08
-1.02053e+08
-1.01012e+08
-1.01045e+08
-1.00599e+08
-9.95788e+07
-9.96611e+07
-9.92725e+07
-9.82979e+07
-9.84204e+07
-9.80565e+07
-9.70832e+07
-9.71985e+07
-9.67955e+07
-9.5761e+07
-9.58035e+07
-9.53115e+07
-9.41851e+07
-9.41333e+07
-9.35473e+07
-9.2334e+07
-9.22026e+07
-9.15237e+07
-9.02059e+07
-8.99376e+07
-8.90756e+07
-8.75601e+07
-8.70828e+07
-8.60515e+07
-8.44369e+07
-8.39427e+07
-8.2941e+07
-8.14088e+07
-8.10198e+07
-8.01263e+07
-7.86899e+07
-7.83854e+07
-7.75563e+07
-7.6185e+07
-7.59366e+07
-7.51549e+07
-7.38582e+07
-7.36899e+07
-7.29924e+07
-7.17985e+07
-7.17574e+07
-7.11929e+07
-7.01471e+07
-7.02458e+07
-6.9815e+07
-6.89094e+07
-6.91243e+07
-6.87707e+07
-6.79278e+07
-6.81841e+07
-6.78885e+07
-6.71565e+07
-6.75973e+07
-6.7582e+07
-6.72374e+07
-6.81442e+07
-6.86358e+07
-6.88153e+07
-7.01916e+07
-7.10594e+07
-7.15252e+07
-7.30782e+07
-7.40363e+07
-7.4566e+07
-7.61986e+07
-7.7292e+07
-7.80369e+07
-7.99524e+07
-8.13652e+07
-8.24033e+07
-8.45237e+07
-8.60418e+07
-8.70775e+07
-8.91089e+07
-9.04773e+07
-9.13337e+07
-9.31791e+07
-9.43998e+07
-9.5136e+07
-9.68758e+07
-9.79716e+07
-9.85729e+07
-1.00159e+08
-1.01092e+08
-1.01525e+08
-1.02946e+08
-1.03731e+08
-1.04004e+08
-1.05263e+08
-1.0587e+08
-1.05947e+08
-1.07013e+08
-1.07441e+08
-1.07368e+08
-1.08332e+08
-1.08726e+08
-1.08647e+08
-1.096e+08
-1.09959e+08
-1.09773e+08
-1.10537e+08
-1.10628e+08
-1.10122e+08
-1.10584e+08
-1.10454e+08
-1.0985e+08
-1.10361e+08
-1.1042e+08
-1.10096e+08
-1.10923e+08
-1.11282e+08
-1.11135e+08
-1.1199e+08
-1.12238e+08
-1.11892e+08
-1.12525e+08
-1.12595e+08
-1.12175e+08
-1.12834e+08
-1.13004e+08
-1.12708e+08
-1.13464e+08
-1.13672e+08
-1.13309e+08
-1.139e+08
-1.13875e+08
-1.13279e+08
-1.13704e+08
-1.13633e+08
-1.13117e+08
-1.13742e+08
-1.13957e+08
-1.13719e+08
-1.14561e+08
-1.14864e+08
-1.14547e+08
-1.15166e+08
-1.15164e+08
-1.14541e+08
-1.14934e+08
-1.14821e+08
-1.14236e+08
-1.14791e+08
-1.14925e+08
-1.14602e+08
-1.15358e+08
-1.15566e+08
-1.15158e+08
-1.15702e+08
-1.15643e+08
-1.14981e+08
-1.15378e+08
-1.15336e+08
-1.14876e+08
-1.15618e+08
-1.1598e+08
-1.15879e+08
-1.16839e+08
-1.17236e+08
-1.16987e+08
-1.17674e+08
-1.17721e+08
-1.17133e+08
-1.17565e+08
-1.17498e+08
-1.16942e+08
-1.17524e+08
-1.17683e+08
-1.17343e+08
-1.18065e+08
-1.1828e+08
-1.17909e+08
-1.18558e+08
-1.1868e+08
-1.18242e+08
-1.18891e+08
-1.19092e+08
-1.1879e+08
-1.19614e+08
-1.19975e+08
-1.19783e+08
-1.20616e+08
-1.20868e+08
-1.20488e+08
-1.21098e+08
-1.21142e+08
-1.20631e+08
-1.21232e+08
-1.21389e+08
-1.21082e+08
-1.2191e+08
-1.22248e+08
-1.22035e+08
-1.22845e+08
-1.23074e+08
-1.227e+08
-1.2334e+08
-1.23464e+08
-1.23072e+08
-1.23799e+08
-1.2406e+08
-1.23837e+08
-1.24737e+08
-1.25131e+08
-1.24956e+08
-1.25802e+08
-1.26055e+08
-1.25686e+08
-1.26332e+08
-1.2642e+08
-1.25966e+08
-1.26622e+08
-1.26799e+08
-1.26476e+08
-1.2725e+08
-1.27482e+08
-1.2714e+08
-1.27829e+08
-1.27938e+08
-1.27461e+08
-1.28063e+08
-1.28164e+08
-1.27747e+08
-1.28468e+08
-1.28709e+08
-1.28429e+08
-1.2924e+08
-1.29494e+08
-1.29176e+08
-1.29907e+08
-1.30071e+08
-1.29662e+08
-1.30329e+08
-1.30446e+08
-1.30002e+08
-1.30621e+08
-1.30674e+08
-1.30166e+08
-1.30742e+08
-1.30795e+08
-1.30336e+08
-1.31002e+08
-1.31184e+08
-1.30871e+08
-1.31684e+08
-1.31981e+08
-1.31698e+08
-1.32472e+08
-1.32647e+08
-1.32182e+08
-1.32747e+08
-1.32738e+08
-1.32169e+08
-1.32719e+08
-1.32765e+08
-1.32287e+08
-1.32918e+08
-1.33e+08
-1.32512e+08
-1.33097e+08
-1.33131e+08
-1.32624e+08
-1.33227e+08
-1.33322e+08
-1.32891e+08
-1.33566e+08
-1.33711e+08
-1.33299e+08
-1.33991e+08
-1.34159e+08
-1.33809e+08
-1.34618e+08
-1.34926e+08
-1.34723e+08
-1.35641e+08
-1.35966e+08
-1.3567e+08
-1.36364e+08
-1.36389e+08
-1.35748e+08
-1.36125e+08
-1.35923e+08
-1.35178e+08
-1.35592e+08
-1.35532e+08
-1.34991e+08
-1.35632e+08
-1.35792e+08
-1.35435e+08
-1.36198e+08
-1.36411e+08
-1.36028e+08
-1.36701e+08
-1.36782e+08
-1.36262e+08
-1.36805e+08
-1.36763e+08
-1.3617e+08
-1.36695e+08
-1.36695e+08
-1.36216e+08
-1.36897e+08
-1.37066e+08
-1.36729e+08
-1.37485e+08
-1.37634e+08
-1.37176e+08
-1.3774e+08
-1.37682e+08
-1.37053e+08
-1.37497e+08
-1.37372e+08
-1.36752e+08
-1.37229e+08
-1.37111e+08
-1.36454e+08
-1.36815e+08
-1.36496e+08
-1.35589e+08
-1.35694e+08
-1.35174e+08
-1.34155e+08
-1.34285e+08
-1.33926e+08
-1.33169e+08
-1.33594e+08
-1.33521e+08
-1.32963e+08
-1.33481e+08
-1.33353e+08
-1.32557e+08
-1.32722e+08
-1.32157e+08
-1.30883e+08
-1.306e+08
-1.29668e+08
-1.28142e+08
-1.2779e+08
-1.27e+08
-1.25832e+08
-1.2606e+08
-1.26038e+08
-1.25735e+08
-1.2682e+08
-1.27538e+08
-1.27753e+08
-1.29071e+08
-1.29768e+08
-1.29768e+08
-1.30785e+08
-1.31241e+08
-1.31121e+08
-1.32199e+08
-1.32857e+08
-1.32984e+08
-1.34225e+08
-1.34875e+08
-1.34763e+08
-1.35541e+08
-1.3559e+08
-1.34869e+08
-1.3518e+08
-1.35078e+08
-1.34542e+08
-1.35362e+08
-1.36005e+08
-1.36284e+08
-1.37839e+08
-1.38996e+08
-1.3951e+08
-1.41029e+08
-1.41949e+08
-1.42153e+08
-1.43403e+08
-1.44154e+08
-1.44307e+08
-1.45591e+08
-1.46401e+08
-1.46582e+08
-1.47831e+08
-1.48502e+08
-1.48426e+08
-1.49423e+08
-1.49854e+08
-1.4952e+08
-1.5033e+08
-1.50614e+08
-1.50098e+08
-1.50788e+08
-1.50978e+08
-1.50186e+08
-1.50718e+08
-1.50779e+08
-1.49499e+08
-1.49581e+08
-1.49178e+08
-1.47203e+08
-1.47122e+08
-1.47217e+08
-1.45981e+08
-1.47249e+08
-1.48977e+08
-1.49463e+08
-1.51695e+08
-1.53204e+08
-1.53252e+08
-1.53571e+08
-1.52089e+08
-1.49783e+08
-1.47394e+08
-1.43206e+08
-1.39085e+08
-1.34673e+08
-1.27803e+08
-1.19554e+08
-1.09615e+08
-9.58402e+07
-7.95327e+07
-6.15497e+07
-4.10039e+07
-2.00197e+07
-1.01727e+06
1.62382e+07
2.99325e+07
3.7839e+07
4.11453e+07
3.95234e+07
3.18608e+07
2.0645e+07
6.72416e+06
-1.04704e+07
-2.80107e+07
-4.49989e+07
-6.2265e+07
-7.72315e+07
-8.96676e+07
-1.01128e+08
-1.09683e+08
-1.15861e+08
-1.21766e+08
-1.2563e+08
-1.28392e+08
-1.32012e+08
-1.341e+08
-1.35656e+08
-1.38219e+08
-1.38906e+08
-1.39235e+08
-1.40778e+08
-1.40333e+08
-1.40025e+08
-1.4145e+08
-1.41526e+08
-1.41833e+08
-1.43727e+08
-1.44981e+08
-1.45626e+08
-1.47143e+08
-1.48576e+08
-1.48623e+08
-1.49121e+08
-1.50187e+08
-1.49837e+08
-1.50112e+08
-1.50931e+08
-1.50651e+08
-1.51203e+08
-1.5212e+08
-1.51926e+08
-1.52526e+08
-1.53012e+08
-1.52459e+08
-1.52807e+08
-1.52829e+08
-1.51989e+08
-1.52278e+08
-1.52276e+08
-1.51654e+08
-1.52306e+08
-1.5256e+08
-1.52156e+08
-1.52924e+08
-1.53098e+08
-1.52513e+08
-1.53075e+08
-1.53072e+08
-1.52422e+08
-1.53063e+08
-1.53207e+08
-1.52727e+08
-1.53475e+08
-1.53597e+08
-1.52963e+08
-1.53459e+08
-1.53291e+08
-1.52424e+08
-1.52839e+08
-1.52751e+08
-1.52098e+08
-1.52788e+08
-1.52937e+08
-1.5242e+08
-1.53099e+08
-1.53102e+08
-1.52345e+08
-1.52776e+08
-1.52582e+08
-1.51727e+08
-1.5217e+08
-1.52061e+08
-1.51319e+08
-1.51886e+08
-1.51878e+08
-1.51192e+08
-1.51796e+08
-1.5179e+08
-1.51073e+08
-1.51624e+08
-1.51537e+08
-1.50709e+08
-1.51134e+08
-1.50931e+08
-1.49982e+08
-1.50301e+08
-1.50016e+08
-1.49027e+08
-1.49367e+08
-1.49138e+08
-1.48215e+08
-1.48627e+08
-1.48447e+08
-1.47533e+08
-1.47926e+08
-1.47704e+08
-1.46747e+08
-1.47123e+08
-1.46915e+08
-1.46003e+08
-1.46444e+08
-1.46275e+08
-1.45338e+08
-1.45693e+08
-1.45363e+08
-1.44203e+08
-1.44315e+08
-1.43755e+08
-1.42407e+08
-1.42416e+08
-1.41826e+08
-1.405e+08
-1.40544e+08
-1.39976e+08
-1.3865e+08
-1.38657e+08
-1.38003e+08
-1.36562e+08
-1.36425e+08
-1.35593e+08
-1.33964e+08
-1.33648e+08
-1.32662e+08
-1.3095e+08
-1.30634e+08
-1.2971e+08
-1.28137e+08
-1.27997e+08
-1.27252e+08
-1.25853e+08
-1.2585e+08
-1.25181e+08
-1.23813e+08
-1.23801e+08
-1.23089e+08
-1.21688e+08
-1.21656e+08
-1.20966e+08
-1.19655e+08
-1.19753e+08
-1.19205e+08
-1.18049e+08
-1.18299e+08
-1.17892e+08
-1.16876e+08
-1.17256e+08
-1.16983e+08
-1.16137e+08
-1.16726e+08
-1.16699e+08
-1.16163e+08
-1.17093e+08
-1.17425e+08
-1.17253e+08
-1.1852e+08
-1.19153e+08
-1.1928e+08
-1.20863e+08
-1.21843e+08
-1.22385e+08
-1.24423e+08
-1.25862e+08
-1.26833e+08
-1.29208e+08
-1.30881e+08
-1.31951e+08
-1.34304e+08
-1.35867e+08
-1.36773e+08
-1.38952e+08
-1.40368e+08
-1.4119e+08
-1.43348e+08
-1.44792e+08
-1.45673e+08
-1.4788e+08
-1.49331e+08
-1.50108e+08
-1.52105e+08
-1.53248e+08
-1.53647e+08
-1.55238e+08
-1.55994e+08
-1.56067e+08
-1.57415e+08
-1.58039e+08
-1.58043e+08
-1.59362e+08
-1.59949e+08
-1.59881e+08
-1.61084e+08
-1.61523e+08
-1.6128e+08
-1.62332e+08
-1.6266e+08
-1.62355e+08
-1.63381e+08
-1.63714e+08
-1.63409e+08
-1.64423e+08
-1.64736e+08
-1.6438e+08
-1.65343e+08
-1.65605e+08
-1.65189e+08
-1.66088e+08
-1.66296e+08
-1.65833e+08
-1.66706e+08
-1.66903e+08
-1.6642e+08
-1.67258e+08
-1.67402e+08
-1.66824e+08
-1.67547e+08
-1.67569e+08
-1.66887e+08
-1.67559e+08
-1.6761e+08
-1.67028e+08
-1.67862e+08
-1.68114e+08
-1.67731e+08
-1.68717e+08
-1.6906e+08
-1.68697e+08
-1.69646e+08
-1.69881e+08
-1.69367e+08
-1.70163e+08
-1.70285e+08
-1.69706e+08
-1.70498e+08
-1.70659e+08
-1.70137e+08
-1.70989e+08
-1.71185e+08
-1.70651e+08
-1.71441e+08
-1.71552e+08
-1.70927e+08
-1.7168e+08
-1.7181e+08
-1.71274e+08
-1.72157e+08
-1.72419e+08
-1.71975e+08
-1.72881e+08
-1.73097e+08
-1.72522e+08
-1.73251e+08
-1.73274e+08
-1.72547e+08
-1.73216e+08
-1.73276e+08
-1.72674e+08
-1.73527e+08
-1.73791e+08
-1.73365e+08
-1.74337e+08
-1.74647e+08
-1.74182e+08
-1.75044e+08
-1.75196e+08
-1.74564e+08
-1.75294e+08
-1.75369e+08
-1.74741e+08
-1.75553e+08
-1.7575e+08
-1.75244e+08
-1.76137e+08
-1.76347e+08
-1.75769e+08
-1.7653e+08
-1.76599e+08
-1.75916e+08
-1.76647e+08
-1.76768e+08
-1.76223e+08
-1.77158e+08
-1.77491e+08
-1.77123e+08
-1.78144e+08
-1.78461e+08
-1.77974e+08
-1.78824e+08
-1.78947e+08
-1.78302e+08
-1.79069e+08
-1.79199e+08
-1.78667e+08
-1.79613e+08
-1.79953e+08
-1.79604e+08
-1.80651e+08
-1.80979e+08
-1.80514e+08
-1.81382e+08
-1.81499e+08
-1.80842e+08
-1.81588e+08
-1.81678e+08
-1.81102e+08
-1.82013e+08
-1.82295e+08
-1.81901e+08
-1.82939e+08
-1.83267e+08
-1.82834e+08
-1.83774e+08
-1.83954e+08
-1.83355e+08
-1.84147e+08
-1.84226e+08
-1.83603e+08
-1.84451e+08
-1.84656e+08
-1.84179e+08
-1.85156e+08
-1.85422e+08
-1.84919e+08
-1.85792e+08
-1.85897e+08
-1.85214e+08
-1.85949e+08
-1.85989e+08
-1.85336e+08
-1.8618e+08
-1.8638e+08
-1.85899e+08
-1.86878e+08
-1.87143e+08
-1.86634e+08
-1.87517e+08
-1.8763e+08
-1.86961e+08
-1.87717e+08
-1.87773e+08
-1.87129e+08
-1.87985e+08
-1.8818e+08
-1.8767e+08
-1.8863e+08
-1.88884e+08
-1.88373e+08
-1.89271e+08
-1.89424e+08
-1.88798e+08
-1.89607e+08
-1.89698e+08
-1.89056e+08
-1.89883e+08
-1.90013e+08
-1.89402e+08
-1.90235e+08
-1.90341e+08
-1.89665e+08
-1.90412e+08
-1.90438e+08
-1.89712e+08
-1.90454e+08
-1.90515e+08
-1.8986e+08
-1.90702e+08
-1.90877e+08
-1.90326e+08
-1.91249e+08
-1.9146e+08
-1.90897e+08
-1.9177e+08
-1.91918e+08
-1.91303e+08
-1.92163e+08
-1.92335e+08
-1.91788e+08
-1.92743e+08
-1.92989e+08
-1.92471e+08
-1.93383e+08
-1.93529e+08
-1.9286e+08
-1.93611e+08
-1.93616e+08
-1.92887e+08
-1.93669e+08
-1.93794e+08
-1.9325e+08
-1.9423e+08
-1.94508e+08
-1.94024e+08
-1.94952e+08
-1.9507e+08
-1.94343e+08
-1.95018e+08
-1.94915e+08
-1.94041e+08
-1.94631e+08
-1.94482e+08
-1.9361e+08
-1.94179e+08
-1.9396e+08
-1.92972e+08
-1.93373e+08
-1.92942e+08
-1.91737e+08
-1.91955e+08
-1.914e+08
-1.90146e+08
-1.90437e+08
-1.90076e+08
-1.89142e+08
-1.89836e+08
-1.89893e+08
-1.89303e+08
-1.90217e+08
-1.90305e+08
-1.89494e+08
-1.89975e+08
-1.89465e+08
-1.87944e+08
-1.87751e+08
-1.86701e+08
-1.84856e+08
-1.84635e+08
-1.8387e+08
-1.82598e+08
-1.83132e+08
-1.83219e+08
-1.82752e+08
-1.83962e+08
-1.845e+08
-1.84238e+08
-1.85435e+08
-1.85846e+08
-1.85427e+08
-1.86534e+08
-1.86994e+08
-1.86769e+08
-1.88171e+08
-1.88942e+08
-1.88937e+08
-1.90382e+08
-1.90973e+08
-1.90578e+08
-1.91509e+08
-1.91575e+08
-1.90742e+08
-1.91411e+08
-1.91473e+08
-1.9087e+08
-1.91937e+08
-1.92503e+08
-1.92377e+08
-1.93812e+08
-1.94579e+08
-1.9449e+08
-1.95846e+08
-1.96475e+08
-1.96277e+08
-1.97616e+08
-1.98357e+08
-1.98379e+08
-1.99981e+08
-2.0094e+08
-2.01072e+08
-2.02643e+08
-2.03405e+08
-2.03178e+08
-2.04374e+08
-2.04752e+08
-2.04127e+08
-2.04997e+08
-2.0511e+08
-2.04257e+08
-2.05021e+08
-2.05125e+08
-2.04152e+08
-2.0493e+08
-2.05071e+08
-2.03765e+08
-2.04215e+08
-2.03949e+08
-2.01971e+08
-2.02169e+08
-2.02213e+08
-2.00745e+08
-2.02069e+08
-2.03617e+08
-2.03835e+08
-2.06278e+08
-2.07919e+08
-2.07984e+08
-2.08785e+08
-2.07575e+08
-2.05211e+08
-2.0307e+08
-1.98829e+08
-1.94396e+08
-1.9015e+08
-1.83426e+08
-1.75308e+08
-1.66151e+08
-1.53153e+08
-1.37353e+08
-1.20173e+08
-1.00018e+08
-7.8924e+07
-5.99829e+07
-4.24379e+07
-2.82024e+07
-2.02142e+07
-1.67169e+07
-1.79899e+07
-2.56817e+07
-3.65713e+07
-4.96994e+07
-6.62187e+07
-8.26642e+07
-9.82637e+07
-1.14638e+08
-1.28768e+08
-1.40505e+08
-1.52024e+08
-1.60756e+08
-1.6704e+08
-1.73429e+08
-1.77485e+08
-1.79992e+08
-1.83553e+08
-1.85362e+08
-1.86466e+08
-1.89133e+08
-1.90045e+08
-1.9056e+08
-1.92795e+08
-1.92954e+08
-1.92885e+08
-1.94734e+08
-1.94897e+08
-1.94885e+08
-1.96786e+08
-1.97859e+08
-1.98224e+08
-2.00009e+08
-2.0159e+08
-2.0168e+08
-2.0265e+08
-2.03915e+08
-2.03483e+08
-2.03969e+08
-2.0465e+08
-2.03988e+08
-2.04576e+08
-2.05268e+08
-2.04733e+08
-2.05513e+08
-2.06067e+08
-2.05494e+08
-2.06316e+08
-2.06654e+08
-2.05914e+08
-2.06653e+08
-2.06806e+08
-2.06022e+08
-2.06812e+08
-2.06915e+08
-2.06103e+08
-2.06864e+08
-2.06853e+08
-2.05921e+08
-2.06575e+08
-2.06475e+08
-2.05525e+08
-2.06257e+08
-2.06299e+08
-2.05551e+08
-2.06503e+08
-2.06713e+08
-2.06069e+08
-2.07049e+08
-2.07202e+08
-2.06449e+08
-2.07285e+08
-2.0727e+08
-2.0635e+08
-2.07041e+08
-2.06891e+08
-2.05851e+08
-2.06451e+08
-2.06237e+08
-2.05183e+08
-2.05836e+08
-2.05726e+08
-2.04823e+08
-2.05638e+08
-2.05649e+08
-2.04768e+08
-2.05495e+08
-2.05322e+08
-2.04202e+08
-2.04711e+08
-2.04391e+08
-2.03243e+08
-2.03862e+08
-2.03757e+08
-2.02838e+08
-2.03643e+08
-2.03611e+08
-2.0262e+08
-2.03236e+08
-2.02949e+08
-2.01684e+08
-2.021e+08
-2.01713e+08
-2.00467e+08
-2.01005e+08
-2.0079e+08
-1.99699e+08
-2.00319e+08
-2.00088e+08
-1.98861e+08
-1.99274e+08
-1.98806e+08
-1.97378e+08
-1.97698e+08
-1.97252e+08
-1.95956e+08
-1.96483e+08
-1.96263e+08
-1.95134e+08
-1.95719e+08
-1.95395e+08
-1.94e+08
-1.94207e+08
-1.93467e+08
-1.91703e+08
-1.91659e+08
-1.90795e+08
-1.89046e+08
-1.8912e+08
-1.88417e+08
-1.86803e+08
-1.86927e+08
-1.86159e+08
-1.84375e+08
-1.84246e+08
-1.8319e+08
-1.81169e+08
-1.80911e+08
-1.79849e+08
-1.77956e+08
-1.77905e+08
-1.77069e+08
-1.75375e+08
-1.75448e+08
-1.74615e+08
-1.72837e+08
-1.72773e+08
-1.71815e+08
-1.70015e+08
-1.70067e+08
-1.69352e+08
-1.67895e+08
-1.68315e+08
-1.67917e+08
-1.66685e+08
-1.6718e+08
-1.66722e+08
-1.65363e+08
-1.65741e+08
-1.65243e+08
-1.63986e+08
-1.64608e+08
-1.64475e+08
-1.63687e+08
-1.6479e+08
-1.65104e+08
-1.6471e+08
-1.66146e+08
-1.66731e+08
-1.66594e+08
-1.68279e+08
-1.69143e+08
-1.69355e+08
-1.71472e+08
-1.72834e+08
-1.73579e+08
-1.76188e+08
-1.77947e+08
-1.78954e+08
-1.81659e+08
-1.8335e+08
-1.8415e+08
-1.8656e+08
-1.87942e+08
-1.88466e+08
-1.90686e+08
-1.91968e+08
-1.92469e+08
-1.94701e+08
-1.95991e+08
-1.96441e+08
-1.98525e+08
-1.99578e+08
-1.99707e+08
-2.01437e+08
-2.0215e+08
-2.01999e+08
-2.03552e+08
-2.04205e+08
-2.04077e+08
-2.05692e+08
-2.06382e+08
-2.06215e+08
-2.07691e+08
-2.08158e+08
-2.07703e+08
-2.08885e+08
-2.09121e+08
-2.08534e+08
-2.09708e+08
-2.10032e+08
-2.09573e+08
-2.10861e+08
-2.11247e+08
-2.1075e+08
-2.11895e+08
-2.12071e+08
-2.11323e+08
-2.12236e+08
-2.1225e+08
-2.11429e+08
-2.12371e+08
-2.12502e+08
-2.11852e+08
-2.12975e+08
-2.13241e+08
-2.12629e+08
-2.13671e+08
-2.1375e+08
-2.12872e+08
-2.1363e+08
-2.13475e+08
-2.12462e+08
-2.1323e+08
-2.13232e+08
-2.12496e+08
-2.13594e+08
-2.13901e+08
-2.13383e+08
-2.14572e+08
-2.14822e+08
-2.14109e+08
-2.15026e+08
-2.14984e+08
-2.14022e+08
-2.14793e+08
-2.14734e+08
-2.13877e+08
-2.14843e+08
-2.15008e+08
-2.14333e+08
-2.15395e+08
-2.1556e+08
-2.14789e+08
-2.15707e+08
-2.15731e+08
-2.14852e+08
-2.15734e+08
-2.15798e+08
-2.15009e+08
-2.16005e+08
-2.16173e+08
-2.15433e+08
-2.16412e+08
-2.16498e+08
-2.15631e+08
-2.1649e+08
-2.16501e+08
-2.15625e+08
-2.16551e+08
-2.16679e+08
-2.15945e+08
-2.16999e+08
-2.17219e+08
-2.16492e+08
-2.17466e+08
-2.17532e+08
-2.16619e+08
-2.17436e+08
-2.17426e+08
-2.16534e+08
-2.17482e+08
-2.17667e+08
-2.1699e+08
-2.18116e+08
-2.18399e+08
-2.17718e+08
-2.18739e+08
-2.1885e+08
-2.17978e+08
-2.1883e+08
-2.18843e+08
-2.17966e+08
-2.18928e+08
-2.19124e+08
-2.1847e+08
-2.19644e+08
-2.19999e+08
-2.19434e+08
-2.20617e+08
-2.20899e+08
-2.20197e+08
-2.21221e+08
-2.21352e+08
-2.20541e+08
-2.21526e+08
-2.21677e+08
-2.20944e+08
-2.22033e+08
-2.22275e+08
-2.21606e+08
-2.22707e+08
-2.22896e+08
-2.2212e+08
-2.23083e+08
-2.23136e+08
-2.22269e+08
-2.23222e+08
-2.23346e+08
-2.22616e+08
-2.23742e+08
-2.24035e+08
-2.23436e+08
-2.24624e+08
-2.24874e+08
-2.24131e+08
-2.251e+08
-2.25117e+08
-2.24187e+08
-2.25073e+08
-2.25108e+08
-2.24287e+08
-2.25322e+08
-2.25506e+08
-2.2479e+08
-2.25865e+08
-2.26009e+08
-2.25191e+08
-2.26143e+08
-2.26185e+08
-2.25314e+08
-2.26287e+08
-2.26413e+08
-2.2568e+08
-2.26808e+08
-2.27057e+08
-2.26376e+08
-2.27466e+08
-2.27607e+08
-2.26765e+08
-2.27683e+08
-2.27673e+08
-2.26739e+08
-2.27646e+08
-2.277e+08
-2.26889e+08
-2.27938e+08
-2.2811e+08
-2.27349e+08
-2.28373e+08
-2.28448e+08
-2.27534e+08
-2.284e+08
-2.28366e+08
-2.27439e+08
-2.28406e+08
-2.28578e+08
-2.27922e+08
-2.29161e+08
-2.29534e+08
-2.2897e+08
-2.30175e+08
-2.30401e+08
-2.29608e+08
-2.3057e+08
-2.30587e+08
-2.29665e+08
-2.30607e+08
-2.30709e+08
-2.2994e+08
-2.31043e+08
-2.31247e+08
-2.3049e+08
-2.31509e+08
-2.31554e+08
-2.3058e+08
-2.31375e+08
-2.31238e+08
-2.30166e+08
-2.3097e+08
-2.30937e+08
-2.30047e+08
-2.31071e+08
-2.31239e+08
-2.30495e+08
-2.31579e+08
-2.31713e+08
-2.30843e+08
-2.31751e+08
-2.31704e+08
-2.30698e+08
-2.31566e+08
-2.31584e+08
-2.30752e+08
-2.31864e+08
-2.32148e+08
-2.31535e+08
-2.32764e+08
-2.33025e+08
-2.32246e+08
-2.33202e+08
-2.33135e+08
-2.32042e+08
-2.32768e+08
-2.32608e+08
-2.31581e+08
-2.32507e+08
-2.3262e+08
-2.31874e+08
-2.33023e+08
-2.33263e+08
-2.32516e+08
-2.33554e+08
-2.33602e+08
-2.32649e+08
-2.33522e+08
-2.33496e+08
-2.32584e+08
-2.33614e+08
-2.3381e+08
-2.33123e+08
-2.34312e+08
-2.34572e+08
-2.33831e+08
-2.34869e+08
-2.34906e+08
-2.3393e+08
-2.3479e+08
-2.34742e+08
-2.33793e+08
-2.34761e+08
-2.34859e+08
-2.34048e+08
-2.35092e+08
-2.35176e+08
-2.34257e+08
-2.35131e+08
-2.35033e+08
-2.33979e+08
-2.34821e+08
-2.34814e+08
-2.33976e+08
-2.35096e+08
-2.35361e+08
-2.34724e+08
-2.35912e+08
-2.36095e+08
-2.35232e+08
-2.36108e+08
-2.35949e+08
-2.34795e+08
-2.35499e+08
-2.35308e+08
-2.34258e+08
-2.35159e+08
-2.35181e+08
-2.34285e+08
-2.352e+08
-2.35075e+08
-2.33921e+08
-2.34485e+08
-2.33975e+08
-2.32492e+08
-2.32843e+08
-2.32273e+08
-2.30879e+08
-2.31446e+08
-2.3116e+08
-2.30053e+08
-2.30876e+08
-2.30785e+08
-2.2981e+08
-2.30725e+08
-2.30685e+08
-2.29703e+08
-2.30565e+08
-2.30383e+08
-2.29124e+08
-2.29604e+08
-2.28955e+08
-2.27168e+08
-2.27149e+08
-2.26145e+08
-2.24224e+08
-2.24379e+08
-2.23861e+08
-2.22688e+08
-2.23763e+08
-2.24229e+08
-2.23958e+08
-2.2573e+08
-2.26607e+08
-2.26415e+08
-2.27952e+08
-2.28383e+08
-2.27655e+08
-2.2872e+08
-2.28863e+08
-2.28083e+08
-2.29321e+08
-2.29778e+08
-2.29348e+08
-2.30847e+08
-2.31389e+08
-2.30827e+08
-2.3199e+08
-2.32086e+08
-2.31063e+08
-2.31878e+08
-2.31865e+08
-2.30982e+08
-2.32163e+08
-2.32685e+08
-2.32399e+08
-2.34122e+08
-2.35018e+08
-2.34884e+08
-2.36533e+08
-2.37174e+08
-2.36704e+08
-2.38048e+08
-2.38509e+08
-2.38019e+08
-2.39509e+08
-2.40222e+08
-2.4002e+08
-2.41771e+08
-2.42608e+08
-2.42281e+08
-2.4373e+08
-2.44087e+08
-2.43153e+08
-2.4398e+08
-2.43785e+08
-2.42341e+08
-2.4297e+08
-2.42849e+08
-2.41493e+08
-2.42439e+08
-2.42564e+08
-2.40889e+08
-2.4141e+08
-2.41149e+08
-2.38955e+08
-2.3962e+08
-2.402e+08
-2.39267e+08
-2.41509e+08
-2.43487e+08
-2.43966e+08
-2.4628e+08
-2.46816e+08
-2.45561e+08
-2.44925e+08
-2.41892e+08
-2.38057e+08
-2.35001e+08
-2.29828e+08
-2.2396e+08
-2.18383e+08
-2.09635e+08
-1.98303e+08
-1.85674e+08
-1.68817e+08
-1.49176e+08
-1.29852e+08
-1.09498e+08
-9.04104e+07
-7.66052e+07
-6.64861e+07
-6.11327e+07
-6.32482e+07
-6.94148e+07
-7.87955e+07
-9.29514e+07
-1.07705e+08
-1.22085e+08
-1.38133e+08
-1.52302e+08
-1.64453e+08
-1.77319e+08
-1.87784e+08
-1.95947e+08
-2.04683e+08
-2.10815e+08
-2.14748e+08
-2.19507e+08
-2.21939e+08
-2.22952e+08
-2.25543e+08
-2.26202e+08
-2.26191e+08
-2.28346e+08
-2.28597e+08
-2.28579e+08
-2.30875e+08
-2.311e+08
-2.31031e+08
-2.33216e+08
-2.33921e+08
-2.33955e+08
-2.35928e+08
-2.3716e+08
-2.37098e+08
-2.38509e+08
-2.39793e+08
-2.39297e+08
-2.40087e+08
-2.40891e+08
-2.40135e+08
-2.40978e+08
-2.41722e+08
-2.41033e+08
-2.41935e+08
-2.42436e+08
-2.41518e+08
-2.42282e+08
-2.42429e+08
-2.41336e+08
-2.42091e+08
-2.42175e+08
-2.41191e+08
-2.42178e+08
-2.42354e+08
-2.41438e+08
-2.42425e+08
-2.42453e+08
-2.41353e+08
-2.42179e+08
-2.42072e+08
-2.40925e+08
-2.41794e+08
-2.41779e+08
-2.40776e+08
-2.41796e+08
-2.41877e+08
-2.4091e+08
-2.41893e+08
-2.41868e+08
-2.40772e+08
-2.41642e+08
-2.41539e+08
-2.40411e+08
-2.41311e+08
-2.41255e+08
-2.40195e+08
-2.41156e+08
-2.41137e+08
-2.40073e+08
-2.40993e+08
-2.40902e+08
-2.39734e+08
-2.40551e+08
-2.40362e+08
-2.39116e+08
-2.39882e+08
-2.39665e+08
-2.38422e+08
-2.39235e+08
-2.39093e+08
-2.37925e+08
-2.3878e+08
-2.38622e+08
-2.37369e+08
-2.38093e+08
-2.37783e+08
-2.36382e+08
-2.37025e+08
-2.36711e+08
-2.35388e+08
-2.36178e+08
-2.36022e+08
-2.34817e+08
-2.35654e+08
-2.35451e+08
-2.34082e+08
-2.3468e+08
-2.34204e+08
-2.32588e+08
-2.33035e+08
-2.32533e+08
-2.31004e+08
-2.3162e+08
-2.31298e+08
-2.29907e+08
-2.3057e+08
-2.30177e+08
-2.28586e+08
-2.28975e+08
-2.28288e+08
-2.26446e+08
-2.26691e+08
-2.25976e+08
-2.24216e+08
-2.24604e+08
-2.24045e+08
-2.22409e+08
-2.22855e+08
-2.22251e+08
-2.2047e+08
-2.20704e+08
-2.19846e+08
-2.17815e+08
-2.17833e+08
-2.16804e+08
-2.14681e+08
-2.14674e+08
-2.13685e+08
-2.11663e+08
-2.1179e+08
-2.1093e+08
-2.09013e+08
-2.09194e+08
-2.08328e+08
-2.06372e+08
-2.06503e+08
-2.05597e+08
-2.03662e+08
-2.03865e+08
-2.03078e+08
-2.01308e+08
-2.0168e+08
-2.01052e+08
-1.99427e+08
-1.99915e+08
-1.99354e+08
-1.97787e+08
-1.9833e+08
-1.97848e+08
-1.96423e+08
-1.97153e+08
-1.96888e+08
-1.95704e+08
-1.96639e+08
-1.9655e+08
-1.95525e+08
-1.96616e+08
-1.96703e+08
-1.9593e+08
-1.97368e+08
-1.97897e+08
-1.97669e+08
-1.99709e+08
-2.00851e+08
-2.01201e+08
-2.03722e+08
-2.05214e+08
-2.05772e+08
-2.08355e+08
-2.09803e+08
-2.10274e+08
-2.12775e+08
-2.14178e+08
-2.1465e+08
-2.17168e+08
-2.18583e+08
-2.19018e+08
-2.21426e+08
-2.22647e+08
-2.22823e+08
-2.24934e+08
-2.25877e+08
-2.25837e+08
-2.27817e+08
-2.28716e+08
-2.28691e+08
-2.30693e+08
-2.31579e+08
-2.31444e+08
-2.33237e+08
-2.33811e+08
-2.33305e+08
-2.34736e+08
-2.35035e+08
-2.34371e+08
-2.35775e+08
-2.36156e+08
-2.35618e+08
-2.37123e+08
-2.37531e+08
-2.36892e+08
-2.38184e+08
-2.38311e+08
-2.37358e+08
-2.38378e+08
-2.38338e+08
-2.37338e+08
-2.38429e+08
-2.38541e+08
-2.37702e+08
-2.389e+08
-2.39037e+08
-2.38122e+08
-2.39166e+08
-2.39113e+08
-2.3802e+08
-2.38948e+08
-2.38866e+08
-2.37827e+08
-2.38886e+08
-2.38987e+08
-2.38137e+08
-2.39356e+08
-2.39568e+08
-2.38757e+08
-2.39955e+08
-2.40108e+08
-2.39215e+08
-2.40331e+08
-2.40421e+08
-2.39479e+08
-2.40566e+08
-2.40638e+08
-2.39687e+08
-2.40773e+08
-2.40855e+08
-2.39901e+08
-2.4098e+08
-2.41042e+08
-2.40061e+08
-2.41097e+08
-2.41117e+08
-2.401e+08
-2.41129e+08
-2.41177e+08
-2.40219e+08
-2.41333e+08
-2.41474e+08
-2.40593e+08
-2.41757e+08
-2.41901e+08
-2.40975e+08
-2.42053e+08
-2.42098e+08
-2.41081e+08
-2.42126e+08
-2.42203e+08
-2.41279e+08
-2.42453e+08
-2.42653e+08
-2.41802e+08
-2.4297e+08
-2.43077e+08
-2.42051e+08
-2.42999e+08
-2.42898e+08
-2.41726e+08
-2.42633e+08
-2.42608e+08
-2.41615e+08
-2.42768e+08
-2.42982e+08
-2.42165e+08
-2.43389e+08
-2.43573e+08
-2.42647e+08
-2.4374e+08
-2.43807e+08
-2.42819e+08
-2.43914e+08
-2.44041e+08
-2.43149e+08
-2.4433e+08
-2.445e+08
-2.43598e+08
-2.44718e+08
-2.44787e+08
-2.4377e+08
-2.44798e+08
-2.44817e+08
-2.43812e+08
-2.44907e+08
-2.45033e+08
-2.44141e+08
-2.45329e+08
-2.45501e+08
-2.44607e+08
-2.45743e+08
-2.45833e+08
-2.44848e+08
-2.45901e+08
-2.45936e+08
-2.44925e+08
-2.46002e+08
-2.46078e+08
-2.45139e+08
-2.46291e+08
-2.46431e+08
-2.45535e+08
-2.46708e+08
-2.46844e+08
-2.45926e+08
-2.47068e+08
-2.47175e+08
-2.46234e+08
-2.47365e+08
-2.47476e+08
-2.46556e+08
-2.47724e+08
-2.47878e+08
-2.47013e+08
-2.4823e+08
-2.48416e+08
-2.47541e+08
-2.48717e+08
-2.48824e+08
-2.47852e+08
-2.48929e+08
-2.48949e+08
-2.47929e+08
-2.49006e+08
-2.49086e+08
-2.48158e+08
-2.49329e+08
-2.49485e+08
-2.48598e+08
-2.4977e+08
-2.49893e+08
-2.48958e+08
-2.50081e+08
-2.50164e+08
-2.49213e+08
-2.50347e+08
-2.50453e+08
-2.49509e+08
-2.50619e+08
-2.50669e+08
-2.49639e+08
-2.50654e+08
-2.50615e+08
-2.49529e+08
-2.50544e+08
-2.50563e+08
-2.49593e+08
-2.50747e+08
-2.50891e+08
-2.49989e+08
-2.51129e+08
-2.51189e+08
-2.50155e+08
-2.51162e+08
-2.51126e+08
-2.50067e+08
-2.51128e+08
-2.51206e+08
-2.50287e+08
-2.51469e+08
-2.51606e+08
-2.50676e+08
-2.51784e+08
-2.51822e+08
-2.508e+08
-2.51849e+08
-2.51866e+08
-2.50855e+08
-2.51934e+08
-2.5198e+08
-2.5098e+08
-2.52044e+08
-2.52053e+08
-2.5101e+08
-2.5204e+08
-2.52035e+08
-2.50982e+08
-2.52012e+08
-2.52011e+08
-2.50961e+08
-2.51991e+08
-2.5198e+08
-2.50918e+08
-2.51945e+08
-2.51948e+08
-2.50914e+08
-2.51969e+08
-2.51998e+08
-2.50985e+08
-2.52065e+08
-2.52114e+08
-2.51108e+08
-2.52188e+08
-2.52243e+08
-2.51252e+08
-2.52354e+08
-2.52434e+08
-2.51469e+08
-2.52576e+08
-2.52627e+08
-2.51574e+08
-2.52561e+08
-2.52472e+08
-2.51308e+08
-2.52242e+08
-2.52186e+08
-2.51149e+08
-2.5229e+08
-2.52473e+08
-2.51642e+08
-2.52893e+08
-2.53068e+08
-2.52116e+08
-2.53182e+08
-2.53161e+08
-2.52053e+08
-2.5304e+08
-2.53034e+08
-2.52033e+08
-2.53183e+08
-2.5334e+08
-2.5245e+08
-2.5362e+08
-2.53703e+08
-2.52654e+08
-2.5363e+08
-2.53511e+08
-2.52308e+08
-2.53204e+08
-2.53088e+08
-2.51967e+08
-2.5298e+08
-2.52995e+08
-2.51985e+08
-2.5307e+08
-2.53093e+08
-2.52038e+08
-2.53048e+08
-2.53002e+08
-2.51928e+08
-2.52973e+08
-2.52992e+08
-2.52005e+08
-2.53131e+08
-2.53198e+08
-2.52201e+08
-2.53264e+08
-2.53221e+08
-2.52085e+08
-2.52989e+08
-2.52772e+08
-2.51476e+08
-2.52209e+08
-2.51804e+08
-2.50337e+08
-2.50898e+08
-2.50364e+08
-2.48834e+08
-2.49407e+08
-2.48933e+08
-2.47485e+08
-2.48147e+08
-2.4775e+08
-2.46358e+08
-2.47082e+08
-2.46767e+08
-2.4549e+08
-2.46362e+08
-2.46212e+08
-2.45081e+08
-2.46064e+08
-2.45942e+08
-2.44687e+08
-2.45409e+08
-2.44882e+08
-2.43087e+08
-2.43229e+08
-2.42193e+08
-2.40074e+08
-2.40182e+08
-2.39471e+08
-2.38004e+08
-2.39011e+08
-2.39335e+08
-2.38871e+08
-2.40701e+08
-2.4155e+08
-2.41253e+08
-2.42907e+08
-2.43352e+08
-2.42559e+08
-2.43756e+08
-2.43907e+08
-2.43024e+08
-2.44322e+08
-2.4471e+08
-2.44105e+08
-2.45613e+08
-2.46075e+08
-2.45363e+08
-2.46633e+08
-2.46805e+08
-2.45833e+08
-2.46928e+08
-2.47085e+08
-2.46239e+08
-2.47584e+08
-2.48075e+08
-2.47551e+08
-2.49139e+08
-2.4975e+08
-2.49232e+08
-2.50739e+08
-2.5122e+08
-2.50605e+08
-2.52098e+08
-2.52663e+08
-2.52211e+08
-2.53894e+08
-2.54627e+08
-2.54274e+08
-2.55986e+08
-2.56641e+08
-2.56059e+08
-2.57492e+08
-2.57778e+08
-2.56747e+08
-2.57741e+08
-2.57655e+08
-2.56303e+08
-2.57193e+08
-2.57192e+08
-2.5588e+08
-2.56961e+08
-2.5709e+08
-2.55374e+08
-2.55954e+08
-2.55526e+08
-2.53024e+08
-2.53482e+08
-2.53683e+08
-2.52197e+08
-2.54197e+08
-2.56024e+08
-2.56206e+08
-2.58732e+08
-2.59668e+08
-2.58662e+08
-2.58665e+08
-2.56315e+08
-2.52952e+08
-2.5072e+08
-2.46504e+08
-2.41895e+08
-2.38074e+08
-2.31278e+08
-2.22126e+08
-2.11864e+08
-1.96956e+08
-1.78677e+08
-1.59946e+08
-1.38905e+08
-1.17967e+08
-1.01446e+08
-8.77315e+07
-7.83793e+07
-7.66426e+07
-7.91817e+07
-8.5517e+07
-9.7571e+07
-1.10935e+08
-1.24593e+08
-1.4074e+08
-1.55409e+08
-1.68339e+08
-1.824e+08
-1.94089e+08
-2.03463e+08
-2.13547e+08
-2.20852e+08
-2.25651e+08
-2.31165e+08
-2.34011e+08
-2.35035e+08
-2.3761e+08
-2.38101e+08
-2.37789e+08
-2.39818e+08
-2.39955e+08
-2.3983e+08
-2.42229e+08
-2.42399e+08
-2.42235e+08
-2.44493e+08
-2.44896e+08
-2.44655e+08
-2.46649e+08
-2.4767e+08
-2.47538e+08
-2.49238e+08
-2.50612e+08
-2.50227e+08
-2.513e+08
-2.52287e+08
-2.5145e+08
-2.52194e+08
-2.52716e+08
-2.51649e+08
-2.52338e+08
-2.52712e+08
-2.51656e+08
-2.52512e+08
-2.52838e+08
-2.51881e+08
-2.5291e+08
-2.53173e+08
-2.52143e+08
-2.53095e+08
-2.53086e+08
-2.51864e+08
-2.52725e+08
-2.5262e+08
-2.51433e+08
-2.52434e+08
-2.52476e+08
-2.51427e+08
-2.52521e+08
-2.52563e+08
-2.51438e+08
-2.52409e+08
-2.52293e+08
-2.51036e+08
-2.5193e+08
-2.51805e+08
-2.50618e+08
-2.51622e+08
-2.51602e+08
-2.50475e+08
-2.51465e+08
-2.51338e+08
-2.5004e+08
-2.5086e+08
-2.506e+08
-2.49257e+08
-2.50145e+08
-2.50035e+08
-2.48883e+08
-2.49943e+08
-2.49934e+08
-2.48788e+08
-2.49769e+08
-2.49618e+08
-2.483e+08
-2.49152e+08
-2.4893e+08
-2.47595e+08
-2.48462e+08
-2.48257e+08
-2.46906e+08
-2.47721e+08
-2.47445e+08
-2.46006e+08
-2.46766e+08
-2.46473e+08
-2.45051e+08
-2.45868e+08
-2.45655e+08
-2.44297e+08
-2.45134e+08
-2.44878e+08
-2.43416e+08
-2.44126e+08
-2.43743e+08
-2.4217e+08
-2.42802e+08
-2.42371e+08
-2.40769e+08
-2.41411e+08
-2.41006e+08
-2.39458e+08
-2.40164e+08
-2.39829e+08
-2.38332e+08
-2.39066e+08
-2.38712e+08
-2.37123e+08
-2.37693e+08
-2.37095e+08
-2.35199e+08
-2.35437e+08
-2.34518e+08
-2.32363e+08
-2.32464e+08
-2.31536e+08
-2.29492e+08
-2.29778e+08
-2.29042e+08
-2.27149e+08
-2.27483e+08
-2.26683e+08
-2.24635e+08
-2.24749e+08
-2.23693e+08
-2.2143e+08
-2.21392e+08
-2.20255e+08
-2.18014e+08
-2.18077e+08
-2.17094e+08
-2.15051e+08
-2.1533e+08
-2.14545e+08
-2.12659e+08
-2.1303e+08
-2.12263e+08
-2.10348e+08
-2.10671e+08
-2.09852e+08
-2.0793e+08
-2.08282e+08
-2.07555e+08
-2.05805e+08
-2.06371e+08
-2.05864e+08
-2.0433e+08
-2.05064e+08
-2.04677e+08
-2.03254e+08
-2.04092e+08
-2.03852e+08
-2.02675e+08
-2.03854e+08
-2.04033e+08
-2.03353e+08
-2.05047e+08
-2.05732e+08
-2.05522e+08
-2.07626e+08
-2.08645e+08
-2.08723e+08
-2.11077e+08
-2.12317e+08
-2.1262e+08
-2.15186e+08
-2.1662e+08
-2.17085e+08
-2.19767e+08
-2.21274e+08
-2.21763e+08
-2.24418e+08
-2.25867e+08
-2.26262e+08
-2.28772e+08
-2.30025e+08
-2.30176e+08
-2.32406e+08
-2.33386e+08
-2.33288e+08
-2.35318e+08
-2.36168e+08
-2.36015e+08
-2.38056e+08
-2.38936e+08
-2.38787e+08
-2.40776e+08
-2.41526e+08
-2.41177e+08
-2.42903e+08
-2.43371e+08
-2.42733e+08
-2.44212e+08
-2.44505e+08
-2.43745e+08
-2.45154e+08
-2.45407e+08
-2.44617e+08
-2.45999e+08
-2.46224e+08
-2.45385e+08
-2.46691e+08
-2.46842e+08
-2.45905e+08
-2.47098e+08
-2.47146e+08
-2.46116e+08
-2.47245e+08
-2.47267e+08
-2.46247e+08
-2.47417e+08
-2.47493e+08
-2.46528e+08
-2.47735e+08
-2.47829e+08
-2.46845e+08
-2.48019e+08
-2.48081e+08
-2.47048e+08
-2.48175e+08
-2.48194e+08
-2.47129e+08
-2.48227e+08
-2.48229e+08
-2.47172e+08
-2.48302e+08
-2.48353e+08
-2.47347e+08
-2.48512e+08
-2.48571e+08
-2.47533e+08
-2.4863e+08
-2.48603e+08
-2.47471e+08
-2.48494e+08
-2.48438e+08
-2.47345e+08
-2.48486e+08
-2.48626e+08
-2.47747e+08
-2.49092e+08
-2.49369e+08
-2.4852e+08
-2.49775e+08
-2.49843e+08
-2.48713e+08
-2.49665e+08
-2.49481e+08
-2.48197e+08
-2.49105e+08
-2.48977e+08
-2.47801e+08
-2.48847e+08
-2.4885e+08
-2.47759e+08
-2.48845e+08
-2.4886e+08
-2.47782e+08
-2.48914e+08
-2.49026e+08
-2.48087e+08
-2.49366e+08
-2.49623e+08
-2.48776e+08
-2.50077e+08
-2.50257e+08
-2.4927e+08
-2.50405e+08
-2.50413e+08
-2.49301e+08
-2.50369e+08
-2.50378e+08
-2.4931e+08
-2.50443e+08
-2.50541e+08
-2.49545e+08
-2.50712e+08
-2.50789e+08
-2.49734e+08
-2.50828e+08
-2.50854e+08
-2.49811e+08
-2.50988e+08
-2.5114e+08
-2.50238e+08
-2.51523e+08
-2.51728e+08
-2.50798e+08
-2.51991e+08
-2.52052e+08
-2.50964e+08
-2.52028e+08
-2.52002e+08
-2.50905e+08
-2.52022e+08
-2.52106e+08
-2.51144e+08
-2.52394e+08
-2.52583e+08
-2.51684e+08
-2.52946e+08
-2.53119e+08
-2.52196e+08
-2.53438e+08
-2.53571e+08
-2.52602e+08
-2.53782e+08
-2.53849e+08
-2.52828e+08
-2.53979e+08
-2.54035e+08
-2.53016e+08
-2.54195e+08
-2.54277e+08
-2.53275e+08
-2.54435e+08
-2.54485e+08
-2.53454e+08
-2.54597e+08
-2.54658e+08
-2.53676e+08
-2.54899e+08
-2.55052e+08
-2.54139e+08
-2.5539e+08
-2.55497e+08
-2.54457e+08
-2.55518e+08
-2.55419e+08
-2.54225e+08
-2.55221e+08
-2.55192e+08
-2.54199e+08
-2.55481e+08
-2.55754e+08
-2.54996e+08
-2.56383e+08
-2.56583e+08
-2.55592e+08
-2.56652e+08
-2.56495e+08
-2.55202e+08
-2.5607e+08
-2.5588e+08
-2.54706e+08
-2.55799e+08
-2.55878e+08
-2.54957e+08
-2.5623e+08
-2.56394e+08
-2.5546e+08
-2.56649e+08
-2.56669e+08
-2.55568e+08
-2.56587e+08
-2.56475e+08
-2.55293e+08
-2.56289e+08
-2.56213e+08
-2.55103e+08
-2.56179e+08
-2.56177e+08
-2.55118e+08
-2.56218e+08
-2.56207e+08
-2.5511e+08
-2.56157e+08
-2.561e+08
-2.54971e+08
-2.56013e+08
-2.55986e+08
-2.54923e+08
-2.56052e+08
-2.56111e+08
-2.55114e+08
-2.56265e+08
-2.56302e+08
-2.55245e+08
-2.56326e+08
-2.56308e+08
-2.55222e+08
-2.56295e+08
-2.56285e+08
-2.55213e+08
-2.56287e+08
-2.56262e+08
-2.55154e+08
-2.56196e+08
-2.56152e+08
-2.55064e+08
-2.56157e+08
-2.56189e+08
-2.55181e+08
-2.56349e+08
-2.56432e+08
-2.55426e+08
-2.56535e+08
-2.56511e+08
-2.55377e+08
-2.56372e+08
-2.56283e+08
-2.55148e+08
-2.56195e+08
-2.56198e+08
-2.5516e+08
-2.56273e+08
-2.56285e+08
-2.55203e+08
-2.56221e+08
-2.56125e+08
-2.54957e+08
-2.55959e+08
-2.55915e+08
-2.54891e+08
-2.56068e+08
-2.56192e+08
-2.55279e+08
-2.56469e+08
-2.56499e+08
-2.55421e+08
-2.56415e+08
-2.56265e+08
-2.55064e+08
-2.56003e+08
-2.55829e+08
-2.54617e+08
-2.55494e+08
-2.55181e+08
-2.53769e+08
-2.54368e+08
-2.53744e+08
-2.52045e+08
-2.52443e+08
-2.51754e+08
-2.5013e+08
-2.50737e+08
-2.50355e+08
-2.49096e+08
-2.50066e+08
-2.49967e+08
-2.48845e+08
-2.49793e+08
-2.49529e+08
-2.4812e+08
-2.48721e+08
-2.48092e+08
-2.46289e+08
-2.46536e+08
-2.45595e+08
-2.43544e+08
-2.43645e+08
-2.42715e+08
-2.4086e+08
-2.41367e+08
-2.41057e+08
-2.39973e+08
-2.41333e+08
-2.41865e+08
-2.41463e+08
-2.43269e+08
-2.43965e+08
-2.43471e+08
-2.44978e+08
-2.4532e+08
-2.44527e+08
-2.45879e+08
-2.46251e+08
-2.45621e+08
-2.47177e+08
-2.47694e+08
-2.4705e+08
-2.48379e+08
-2.48478e+08
-2.47315e+08
-2.48147e+08
-2.47938e+08
-2.46753e+08
-2.47888e+08
-2.48293e+08
-2.47876e+08
-2.49774e+08
-2.50781e+08
-2.50675e+08
-2.52549e+08
-2.53238e+08
-2.52649e+08
-2.54034e+08
-2.54371e+08
-2.53672e+08
-2.55173e+08
-2.55791e+08
-2.55418e+08
-2.57186e+08
-2.57907e+08
-2.57419e+08
-2.58934e+08
-2.59273e+08
-2.5829e+08
-2.59358e+08
-2.59345e+08
-2.58108e+08
-2.59075e+08
-2.59071e+08
-2.57762e+08
-2.58783e+08
-2.58873e+08
-2.57363e+08
-2.58212e+08
-2.57966e+08
-2.5564e+08
-2.55932e+08
-2.55628e+08
-2.53373e+08
-2.54525e+08
-2.55717e+08
-2.55299e+08
-2.58006e+08
-2.59884e+08
-2.59897e+08
-2.61364e+08
-2.60522e+08
-2.58002e+08
-2.56263e+08
-2.52192e+08
-2.47805e+08
-2.44433e+08
-2.38561e+08
-2.31416e+08
-2.23966e+08
-2.12368e+08
-1.97655e+08
-1.81657e+08
-1.6171e+08
-1.39916e+08
-1.20024e+08
-1.00523e+08
-8.36409e+07
-7.32999e+07
-6.71214e+07
-6.57516e+07
-7.17727e+07
-8.12239e+07
-9.32693e+07
-1.0981e+08
-1.2645e+08
-1.42356e+08
-1.59815e+08
-1.74838e+08
-1.87278e+08
-2.00025e+08
-2.09596e+08
-2.16329e+08
-2.23545e+08
-2.27973e+08
